12/01/2022,106.78,107.78,106.505,107.09,156570
12/02/2022,106.26,108.55,106.1,108.05,167366
12/05/2022,106.86,106.93,105.68,106.7,153805
12/06/2022,106.55,107.08,105.37,107,247750
12/07/2022,106.73,108.16,106.202,106.3,152844
12/08/2022,106.45,107.94,106.45,107.93,190764
12/09/2022,107.83,108.98,107.65,108.06,316746
12/12/2022,108.46,108.78,107.49,108.08,209108
12/13/2022,110.38,111.11,107.578,108.21,328373
12/14/2022,108.44,110.28,107.23,108.24,302454
12/15/2022,107.7,108.55,107.24,107.65,229997
12/16/2022,107.11,108.26,106.39,107.44,540619
12/19/2022,107.32,108.36,105.78,106.26,269761
12/20/2022,106.43,108.13,106.27,107.12,193278
12/21/2022,107.98,110.64,107.5698,110.64,388504
12/22/2022,109.5,110.8,107.46,108.56,213770
12/23/2022,109.14,110.2,108.35,110.01,161517
12/27/2022,109.9,111.02,109.6315,110.87,101728
12/28/2022,111.06,111.91,109.012,109.17,162674
12/29/2022,109.92,111.17,109.375,110.79,128745
12/30/2022,110.5,110.74,109.02,109.98,172340
01/03/2023,110.58,111.07,109.45,110.26,239234
01/04/2023,111.26,112.21,110.31,111.23,217226
01/05/2023,110.64,113.03,109.12,112.12,310027
01/06/2023,113.38,114.4,112.74,114.06,181525
01/09/2023,114.63,115.68,113.28,113.33,161842
01/10/2023,113.19,114.34,112.96,113.43,162998
01/11/2023,113.58,114.43,113.45,113.46,141308
01/12/2023,113.69,113.785,112.3961,113.5,179058
01/13/2023,113.21,114.31,113.21,113.97,177702
01/17/2023,114.18,114.53,112.83,114.06,204526
01/18/2023,114.49,114.6,111.92,111.97,118896
01/19/2023,111.59,112.41,110.33,111.99,177398
01/20/2023,112.46,113.29,111.6901,113.29,180755
01/23/2023,113.2,113.73,112.46,113.36,165456
01/24/2023,113.03,113.145,111.76,112.84,172566
01/25/2023,111.84,112.51,110.488,112.07,181163
01/26/2023,112.51,112.89,111.82,112.79,139024
01/27/2023,112.51,112.94,111.855,112.73,204294
01/30/2023,111.71,113.329,111.46,113.25,200229
01/31/2023,113.83,116.32,113.315,115.64,630904
02/01/2023,114.45,118.0599,114.39,117.09,190891
02/02/2023,117.09,118.34,116.58,117.3,271605
02/03/2023,116.59,116.59,115.2125,115.42,284051
02/06/2023,114.56,115.5,113.44,113.44,180382
02/07/2023,112.67,112.825,110.7101,112.19,189116
02/08/2023,111.72,112.16,110.55,110.56,138779
02/09/2023,111.48,111.81,109.24,109.25,180195
02/10/2023,109,109.22,107.885,109.21,217891
02/13/2023,109.4,110.54,109.25,109.8,184949
02/14/2023,109.8,111.2,109.6589,109.76,122473
02/15/2023,108.82,110.4,108.57,110.39,155197
02/16/2023,108.72,111.53,108.18,110.69,372175
02/17/2023,115,121.28,114.02,116.69,590720
02/21/2023,116.5,116.5,113.11,115.08,463855
02/22/2023,114.61,116,114.43,114.72,257660
02/23/2023,114.81,115.555,113.08,114.56,196443
02/24/2023,113.8,115.04,112.99,114.77,215098
02/27/2023,115.84,117.25,115.5126,116.69,215322
02/28/2023,116.65,118.11,116.59,116.72,261479
03/01/2023,116.18,117.61,116.18,117.46,194731
03/02/2023,117.42,119,117.23,118.58,205047
03/03/2023,118.97,120.25,117.85,120.25,225357
03/06/2023,120.13,120.19,116.58,116.83,265875
03/07/2023,116.71,117.34,116.2178,116.67,247066
03/08/2023,116.41,116.7,115.1714,115.33,281690
03/09/2023,115.96,116.41,114.531,114.57,189712
03/10/2023,114.64,114.64,112.275,112.56,201355
03/13/2023,111.45,113.11,111.45,111.97,245480
03/14/2023,113.87,115.26,113.49,115.08,261457
03/15/2023,113.46,113.75,110.17,111.38,256158
03/16/2023,110.22,113.28,109.95,112.68,209153
03/17/2023,112.92,112.92,109.95,110.76,393789
03/20/2023,111.8,113.47,111.8,112.78,146437
03/21/2023,114.13,114.22,112.465,113.02,141240
03/22/2023,112.8,114.215,112.14,112.25,176728
03/23/2023,112.15,113.445,110.81,111.72,156888
03/24/2023,111.02,112.99,110.02,112.97,148787
03/27/2023,113.46,114.84,113.46,113.98,170089
03/28/2023,113.77,115.12,113.14,115.02,189823
03/29/2023,115.69,115.94,115.16,115.87,138685
03/30/2023,116.28,116.77,115.05,115.95,148020
03/31/2023,116.52,118.27,116.52,118.19,206327
04/03/2023,117.93,118.81,117.645,118.65,151094
04/04/2023,118.5,118.5,116.78,117.67,183073
04/05/2023,117.74,119.2,117.23,119.08,249720
04/06/2023,119.34,119.34,117.93,119.06,159279
04/10/2023,118.38,119.215,117.97,119.1,174578
04/11/2023,119.2,119.99,118.83,119.05,121846
04/12/2023,119.33,119.67,118.19,118.39,134313
04/13/2023,118.35,120,117.89,119.78,110672
04/14/2023,119.18,120.06,118.31,119.2,233578
04/17/2023,119.5,119.81,118.53,119.81,122358
04/18/2023,119.73,119.73,118.05,118.59,261691
04/19/2023,118.37,119.43,118.06,118.71,252930
04/20/2023,119,119.8,118.515,119.03,296826
04/21/2023,119.32,121.07,118.8,120.59,361462
04/24/2023,120.86,121.4199,119.74,120.4,229624
04/25/2023,119.43,119.95,117.8834,118.07,167516
04/26/2023,117.01,117.575,115.61,115.75,247164
04/27/2023,115.75,116.58,114.63,116.57,361944
04/28/2023,116.51,119.565,116.51,118.51,586715
05/01/2023,119.41,122.5,119.41,121.64,283090
05/02/2023,120.74,120.88,115.73,120.48,359217
05/03/2023,120.47,121.01,119.74,119.9,294338
05/04/2023,119.94,120.15,118.39,118.8,192534
05/05/2023,118.99,121.88,118.99,121.7,171147
05/08/2023,121.86,122.34,120.66,121.5,200362
05/09/2023,120.87,121.03,119.69,120.58,185633
05/10/2023,121.09,121.57,118.495,119.62,227190
05/11/2023,119.48,119.83,118.96,119.28,203949
05/12/2023,119.68,120.87,119.345,120.79,168376
05/15/2023,120.59,121.0728,120.035,120.58,148324
05/16/2023,120.58,120.58,118.205,118.32,180808
05/17/2023,118.82,119.04,117.46,118.97,168597
05/18/2023,118.17,119.05,117.78,118.99,94002
05/19/2023,119.88,120.27,118.6,119.09,156874
05/22/2023,118.67,119.52,117.885,118.13,229606
05/23/2023,117.4,118.45,116.91,117.18,155384
05/24/2023,117.19,117.19,115.03,115.12,297833
05/25/2023,114.29,115.28,113.44,113.54,196776
05/26/2023,112.99,114.49,112.945,114.16,210183
05/30/2023,114.21,114.72,113.01,113.36,136076
05/31/2023,113.44,113.56,111.69,112.49,360767
06/01/2023,112.82,113.52,112.04,112.94,170690
06/02/2023,114.01,114.745,113.66,114.16,353036
06/05/2023,113.8,114.23,112.8765,113.06,244822
06/06/2023,113.04,114.66,113.04,114.32,266852
06/07/2023,114.36,115.7,114.06,115.41,264132
06/08/2023,115.56,115.99,114.79,115.2,270471
06/09/2023,115.06,115.57,114.39,114.81,295007
06/12/2023,114.68,115.59,114.3,115.39,352968
06/13/2023,115.71,116.39,114.76,115.21,340628
06/14/2023,115.61,115.96,114.35,115.16,225220
06/15/2023,115,116.4,114.945,116.05,362582
06/16/2023,115.65,117.21,115.36,117.15,975338
06/20/2023,116.88,116.9521,115.71,115.71,297013
06/21/2023,115.14,115.255,113.42,113.62,317906
06/22/2023,113.95,114.06,112.35,114.05,266218
06/23/2023,112.9,113.73,112.07,112.83,366032
06/26/2023,113.06,114.37,113.06,113.61,142333
06/27/2023,113.83,114.82,113.23,114.72,218253
06/28/2023,114.81,114.81,112.48,113.52,204800
06/29/2023,113.43,115.36,112.55,114.78,225865
06/30/2023,115.22,116.28,114.84,115.86,279940
07/03/2023,115.41,117.02,115.41,116.54,85660
07/05/2023,115.62,115.62,112.76,112.94,384164
07/06/2023,112.25,112.98,111.625,112.47,277687
07/07/2023,112.65,115.33,112.585,113.79,333416
07/10/2023,113.31,115.3,113.01,114.47,247988
07/11/2023,114.31,115.56,113.37,115.51,226717
07/12/2023,116.58,117.55,115.77,116.87,199445
07/13/2023,116.85,117.37,116.56,117.01,190322
07/14/2023,117.69,118.84,116.7,118.35,271606
07/17/2023,118.4,119.54,117.16,119.26,234228
07/18/2023,119.01,120.37,118.7,119.08,189137
07/19/2023,118.75,119.41,118.3076,119.11,247195
07/20/2023,119.78,120.215,118.855,119.33,175805
07/21/2023,119.65,120.05,118.87,119.84,184341
07/24/2023,120.02,120.49,118.71,119.73,163377
07/25/2023,119.68,121.12,119.3,120.56,250661
07/26/2023,120.16,120.4,118.82,119.95,306926
07/27/2023,120.06,120.775,118.74,119.14,407776
07/28/2023,122.49,126.99,121.88,123.78,513037
07/31/2023,123.52,123.93,120.83,121.46,746502
08/01/2023,121.24,122.495,120.75,122.44,365307
08/02/2023,121.44,122.33,119.98,122.24,329178
08/03/2023,121.52,122.73,120.72,120.81,195935
08/04/2023,120.62,122.13,120.48,120.64,116530
08/07/2023,120.73,121.66,120.51,121.29,140267
08/08/2023,120.08,121.4,119.71,121.12,270087
08/09/2023,121.12,123.385,120.52,121.83,287454
08/10/2023,121.8,123.565,121.8,122.23,216042
08/11/2023,121.51,123.22,121.51,122.61,226544
08/14/2023,122.03,122.99,121.58,122.99,145679
08/15/2023,122.63,122.925,121.98,122.09,248980
08/16/2023,121.73,123.16,121.49,121.54,291140
08/17/2023,121.96,122.66,121.62,121.64,186612
08/18/2023,121.38,123.42,121.38,123.29,443095
08/21/2023,123.15,124.46,123.06,123.78,358766
08/22/2023,123.87,125.71,122.76,122.95,429600
08/23/2023,123.06,123.56,122.31,123.39,305025
08/24/2023,123.49,125.46,122.59,125.11,278430
08/25/2023,125.57,127.675,124.98,127.54,492953
08/28/2023,127.63,129.58,127.63,129.41,331923
08/29/2023,129.8,131.96,129.4,131.82,472394
08/30/2023,132.37,133.26,131.7,132.89,298864
08/31/2023,133.28,133.73,132.235,132.56,305773
09/01/2023,133.1,133.79,132.52,132.55,251989
09/05/2023,131.68,131.98,127.36,127.57,325303
09/06/2023,127.79,128.0099,126.195,126.41,291122
09/07/2023,126.29,127.17,125.14,125.36,328552
09/08/2023,125.51,126.67,125.12,125.31,238788
09/11/2023,126.99,127.93,126.405,127.01,333524
09/12/2023,126.11,127.29,125.42,126.53,258007
09/13/2023,125.78,126.585,125.11,125.37,279312
09/14/2023,126.01,127.299,126.01,126.76,217859
09/15/2023,126.49,127.195,125.17,125.93,589390
09/18/2023,126.36,126.36,124.915,125.64,175188
09/19/2023,125.69,125.69,124.06,125.31,218739
09/20/2023,125.84,126.1,124.56,124.63,206240
09/21/2023,124.33,124.35,122.19,122.22,335704
09/22/2023,122.33,122.9,122.11,122.68,341156
09/25/2023,121.99,124.13,121.4713,124.04,258777
09/26/2023,123.53,124.215,123.23,123.6,547004
09/27/2023,124.04,124.45,122.87,123.52,362372
09/28/2023,123.86,125.64,123.26,125.47,219290
09/29/2023,126.49,126.83,124.79,125.04,330916
10/02/2023,124.53,125.48,123.985,125.05,244110
10/03/2023,124.02,125.31,122.49,122.87,236345
10/04/2023,123.55,124.66,122.33,124.23,208157
10/05/2023,123.96,124.93,122.795,123.75,466718
10/06/2023,123.61,126.69,123.39,126.41,491688
10/09/2023,125.82,127.22,125.69,126.94,275718
10/10/2023,127.24,128.61,126.51,126.54,322013
10/11/2023,127.53,127.7,126.645,127.53,212866
10/12/2023,127.22,127.3999,125.06,125.42,189279
10/13/2023,126,126.67,125.4,125.97,324917
10/16/2023,127.36,127.43,126.17,126.71,275211
10/17/2023,126.01,128.34,126.01,127.48,314395
10/18/2023,126.87,127.67,126.2825,126.78,287338
10/19/2023,126.08,127.47,125.39,125.73,443939
10/20/2023,125.93,126.48,121.93,122.22,446518
10/23/2023,121.72,123.16,121.21,121.5,379047
10/24/2023,122.13,123.77,121.72,123.34,312070
10/25/2023,122.43,123.78,121.89,122.37,431281
10/26/2023,121.26,125.39,121.26,123.43,576043
10/27/2023,123.47,123.84,120.36,121.17,364010
10/30/2023,121.92,122.32,120.85,122.17,283053
10/31/2023,122.51,122.89,121.831,122.27,422924
11/01/2023,122.11,123.425,121.605,122.93,360459
11/02/2023,123.72,124.29,122.98,123.58,384317
11/03/2023,124.43,125.974,124.43,125.35,278042
11/06/2023,125.27,125.73,124.75,125.19,173549
11/07/2023,124.62,124.99,124.17,124.55,205013
11/08/2023,124.88,125.49,124.41,125.12,175807
11/09/2023,125.69,125.69,124.07,124.39,118583
11/10/2023,124.24,125.79,123.89,125.72,195598
11/13/2023,125.39,125.48,124.37,124.53,183085
11/14/2023,125.95,127.86,125.31,127.85,267352
11/15/2023,127.82,128.8,127.35,127.71,388569
11/16/2023,127.65,128.615,126.84,127.55,216999
11/17/2023,128.56,129.08,127.61,127.93,162670
11/20/2023,127.45,127.6538,126.43,127.32,213932
11/21/2023,127.46,128.2964,127.2,127.91,160598
11/22/2023,128.45,129.2,127.36,128.57,174832
11/24/2023,128.97,128.97,128.1,128.53,65897
11/27/2023,127.82,128.3,126.85,127,367464
11/28/2023,127,127.01,125.49,125.61,218011
11/29/2023,125.64,126.4,124.915,125.37,331773
11/30/2023,125.45,127.125,124.81,126.89,300962
12/01/2023,126.42,128.535,126.42,128.1,218283
12/04/2023,127.45,128.88,126.89,128.42,191960
12/05/2023,128.25,128.69,125.88,125.99,178030
12/06/2023,126.39,127.3,125.8811,126.37,179521
12/07/2023,126.24,127.11,125.99,126.49,253952
12/08/2023,126.36,127.5,125.62,127.32,265821
12/11/2023,127.26,127.68,126.34,127.57,337976
12/12/2023,127.65,128.1,126.675,127.48,210306
12/13/2023,127.18,128.99,127.18,128.59,424977
12/14/2023,129.08,130.01,126.875,127.4,412923
12/15/2023,127.16,128.58,125.97,125.98,712996
12/18/2023,126.71,127.21,125.88,127.05,240485
12/19/2023,127.71,128.125,126.0305,126.23,659100
12/20/2023,126.02,126.94,125.46,125.57,346449
12/21/2023,126.24,126.24,124.85,125.91,421869
12/22/2023,126.4,127.0448,126.115,126.27,312238
12/26/2023,126.14,126.87,125.59,125.83,274692
12/27/2023,126.12,126.47,125.03,125.28,283123
12/28/2023,124.98,125.8,124.4,125.2,343618
12/29/2023,125.19,125.36,123.56,123.62,313527
01/02/2024,122.61,124.1,122.2935,122.88,313132
01/03/2024,125.15,127.26,123.15,125.36,531783
01/04/2024,125.18,125.92,124.13,124.22,353332
01/05/2024,123.78,124.37,122.99,124.2,422989
01/08/2024,124.07,125.155,122.37,124.35,352405
01/09/2024,123.71,124.635,122.97,124.63,250307
01/10/2024,124.46,125.42,124.23,125.19,279578
01/11/2024,125.38,126.97,124.94,126.84,323136
01/12/2024,127.89,127.97,125.92,126.43,231652
01/16/2024,125.88,126.82,125.51,126.81,257472
01/17/2024,125.94,127.27,125.89,126.69,673700
01/18/2024,127.32,130.005,126.31,129.14,888386
01/19/2024,129.71,131.46,128.535,130.8,417963
01/22/2024,130.9,131.805,130.56,131.19,266190
01/23/2024,131.8,131.85,130.33,131.83,217778
01/24/2024,132.12,132.285,130.54,130.78,294400
01/25/2024,132.03,132.38,130.38,131.25,332302
01/26/2024,131.68,132.59,131.4,131.7,219885
01/29/2024,131.05,132.5924,130.49,132.25,187791
01/30/2024,132.03,133.085,131.6331,132.25,228363
01/31/2024,132.37,132.77,129.16,129.88,537487
02/01/2024,130.46,131.11,129.61,130.5,298800
02/02/2024,129.96,130.71,128.6898,130.1,344843
02/05/2024,129.13,131.45,128.05,130.65,319530
02/06/2024,130.48,131.4,129.3,131.13,369692
02/07/2024,131.41,132.42,129.37,131.8,393013
02/08/2024,131.64,134.84,131.54,132.12,620725
02/09/2024,132.11,139.21,131.505,138.96,650944
02/12/2024,139.16,140.47,137.505,137.61,491253
02/13/2024,136.69,137.33,134.98,135.93,275877
02/14/2024,136.26,137.46,135.17,137.17,334958
02/15/2024,137.17,137.81,134.57,135.04,471417
02/16/2024,135.37,138,135.04,137.5,453937
02/20/2024,137.14,140.136,136.95,139.69,367388
02/21/2024,139.08,140.11,138.99,140,276273
02/22/2024,140.47,142.42,140.07,141.47,295737
02/23/2024,141.97,142.05,140.605,141.36,190330
02/26/2024,141.5,142.055,140.8,141.92,199254
02/27/2024,141.92,142.18,139.8,140.31,244595
02/28/2024,139.65,141.24,139.33,140.41,189620
02/29/2024,140.63,141.63,139.83,140.46,250582
03/01/2024,139.88,140.785,139.56,140.29,151373
03/04/2024,140.69,142.12,140.56,141.96,260259
03/05/2024,142.27,143.21,141.74,142.52,190208
03/06/2024,142.93,143.64,142.48,143.07,183984
03/07/2024,144.5,145.135,143.84,144.65,250091
03/08/2024,144.71,145.075,142.97,143.09,185255
03/11/2024,142.79,143.38,141.975,142.74,226663
03/12/2024,142.8,142.85,141.48,142.41,242199
03/13/2024,143,143,140.93,141.16,336764
03/14/2024,141.36,141.62,140.36,140.93,235213
03/15/2024,140.04,142.41,139.7412,141,599511
03/18/2024,140.93,141.3,138.93,139.26,299728
03/19/2024,138.88,140.315,138.88,139.51,253013
03/20/2024,139.63,140.07,139.14,139.97,219954
03/21/2024,140.31,141.6,139.2997,141.14,255837
03/22/2024,142.01,142.45,141.05,141.59,276019
03/25/2024,141.2,144.05,141.17,142.96,316320
03/26/2024,142.83,144.31,142.62,143.2,314251
03/27/2024,143.67,145.15,143.67,144.66,218170
03/28/2024,144.82,145.3523,143.65,143.89,247840
04/01/2024,143.79,143.79,142.12,142.29,204383
04/02/2024,141.84,141.84,140.39,140.63,202598
04/03/2024,140.67,141.19,139.87,140.88,258661
04/04/2024,141.83,142.75,140.97,141.75,403641
04/05/2024,141.38,142.765,140.9475,141.73,288272
04/08/2024,141.67,142.38,140.39,140.51,312526
04/09/2024,140.42,141.1,139.36,140.31,242589
04/10/2024,138.98,140.215,138.45,139.4,200711
04/11/2024,139.26,140.04,138.45,139.13,265323
04/12/2024,138.17,138.95,135.96,137.2,299234
04/15/2024,138.61,139.81,137.83,138.2,318957
04/16/2024,137.79,139.39,137.36,138.59,279564
04/17/2024,138.88,139.48,138.35,138.4,538755
04/18/2024,138.39,139.44,138.22,139.11,236056
04/19/2024,139.06,139.92,138.77,139.34,221448
04/22/2024,139.55,141.15,139.25,140.32,297175
04/23/2024,139.77,141.16,139.52,140.15,408587
04/24/2024,139.95,140.9,139.64,140.01,453912
04/25/2024,139.84,141.25,138.92,140.18,644285
04/26/2024,142,148.505,141.895,143.33,485546
04/29/2024,144.9,148.02,144.37,146.38,653465
04/30/2024,145.74,146.105,144.06,144.38,569873
05/01/2024,144.99,147.21,144.58,145.38,321663
05/02/2024,145.76,146.725,145.29,145.92,352846
05/03/2024,147.11,147.13,144.84,146.81,282576
05/06/2024,147.76,149.08,147.16,149.04,258174
05/07/2024,148.32,150.38,148.32,149.72,386557
05/08/2024,149.72,150.87,149.4755,150.79,220068
05/09/2024,151,151.73,148.63,149.08,298459
05/10/2024,148.95,149.0012,148.09,148.49,183489
05/13/2024,148.53,149.48,146.86,147.87,167052
05/14/2024,148.3,148.305,147.465,147.9,135109
05/15/2024,147.96,148.34,146.77,147.28,209209
05/16/2024,147.37,147.895,146.425,147.54,229196
05/17/2024,147.85,148.165,147.13,147.67,165683
05/20/2024,147.59,148.41,147.04,148.17,161613
05/21/2024,147.94,148.68,147.09,148.59,276941
05/22/2024,148.07,148.83,147.47,148.79,280493
05/23/2024,148.66,148.95,147.56,147.72,168679
05/24/2024,148.48,148.83,147.36,148.09,153418
05/28/2024,147.62,147.775,145.82,146.71,315261
05/29/2024,145.65,146.7,144.515,144.84,210910
05/30/2024,145.13,146.9779,145,146.14,322539
05/31/2024,146.09,147.83,145.92,147.69,290349
06/03/2024,148.5,148.5,146.03,148.16,254248
06/04/2024,147.65,148.39,146.7,148.19,281164
06/05/2024,147.72,148.2,147.08,147.92,227785
06/06/2024,148.01,148.01,145.4,145.96,192575
06/07/2024,145.77,146.33,145.45,145.55,176369
06/10/2024,144.83,145.81,143.99,145.59,123095
06/11/2024,144.91,145.74,144.35,145.5,145227
06/12/2024,146.24,146.31,144.07,145.83,220471
06/13/2024,145.89,146.53,145.02,145.83,229016
06/14/2024,145.09,145.38,143.6775,144.75,134036
06/17/2024,144.87,146.6799,144.57,146.33,218806
06/18/2024,146.48,147.69,146.47,146.69,208193
06/20/2024,146.66,147.53,145.67,145.81,190415
06/21/2024,145.87,147.135,145.31,146.85,410283
06/24/2024,147.22,148.23,146.67,146.72,181010
06/25/2024,146.79,146.8,144.5,144.86,189940
06/26/2024,144.25,144.785,142.96,143.71,182954
06/27/2024,143.87,143.88,142.27,143.87,376393
06/28/2024,143.78,144.32,140.09,140.81,416360
07/01/2024,141.38,141.48,138.39,138.54,296902
07/02/2024,138.48,140.5,137.76,140.4,250953
07/03/2024,140.88,141.4,140.57,141.22,140978
07/05/2024,140.99,141.435,139.73,140.9,197049
07/08/2024,141.65,142.5,141.5,141.51,243740
07/09/2024,140.86,141.27,139.75,140.04,220827
07/10/2024,140.75,141.63,140.57,141.29,141747
07/11/2024,141.2,143.3,140.75,142.09,234251
07/12/2024,143.41,145.49,143.41,144.59,247464
07/15/2024,144.76,145.69,143.14,143.43,272431
07/16/2024,143.85,145.3,143.85,144.56,169422
07/17/2024,144.34,145.7699,144.34,144.86,238096
07/18/2024,144.61,147.25,144.605,146.28,430805
07/19/2024,146.59,146.59,144.655,145.94,246818
07/22/2024,145.99,147.56,145.25,147.19,220139
07/23/2024,147.87,148.51,145.665,146.04,233011
07/24/2024,146.07,146.6275,143.9,144.14,239466
07/25/2024,142.83,144.05,141.22,141.49,510505
07/26/2024,143.13,151.29,142.355,146.66,560731
07/29/2024,146.58,148.355,145.17,147.8,381886
07/30/2024,147.38,147.9,145.405,145.75,408490
07/31/2024,146.5,148.85,145.41,146.98,267284
08/01/2024,146.88,149.5399,145.43,147.03,332214
08/02/2024,146.58,147,143.75,145.69,210471
08/05/2024,143.43,143.43,139.48,140.68,442785
08/06/2024,141.33,146.085,141.11,144.93,472635
08/07/2024,146.01,147.26,143.47,143.6,346624
08/08/2024,144.46,146.16,144.46,145.56,266292
08/09/2024,145.41,145.41,143.47,143.95,250097
08/12/2024,143.97,144.1807,142.77,143.29,219367
08/13/2024,143.51,145.3,143.1,144.37,208754
08/14/2024,144.13,144.81,143.49,143.9,115529
08/15/2024,145,147.34,145,147.01,276983
08/16/2024,146.11,146.84,145.61,146.72,242489
08/19/2024,146.32,147.73,145.92,146.97,176743
08/20/2024,146.98,148.31,146.98,148.11,380976
08/21/2024,148.17,149.575,147.46,149.33,241916
08/22/2024,149.57,150.4,148.67,148.99,196891
08/23/2024,149.66,150.53,149.4374,150.44,219915
08/26/2024,150.68,152.67,150.14,150.16,234827
08/27/2024,150.01,151.54,149.84,151.2,193612
08/28/2024,150.93,151.965,150.93,151.54,246210
08/29/2024,152.55,152.91,151.21,152.28,186020
08/30/2024,152.2,153.44,151.64,153.19,169842
09/03/2024,152.11,152.375,149.73,150.04,352474
09/04/2024,149.6,150.9,149.6,150.73,172250
09/05/2024,151.08,151.76,149.95,150.72,198191
09/06/2024,150.38,153.121,150.38,152.38,316937
09/09/2024,152.57,153.06,151.435,151.91,238803
09/10/2024,151.87,152.79,151.44,151.51,154057
09/11/2024,150.79,150.88,148.63,150.84,176970
09/12/2024,150.89,152.01,149.97,151.96,197540
09/13/2024,152.19,153.01,151.895,152.28,138087
09/16/2024,153.04,153.17,152.07,152.99,172418
09/17/2024,154,155.565,151.87,153.03,255465
09/18/2024,153.76,155.49,152.71,153.07,213137
09/19/2024,155.02,158.805,155.02,156.9,412008
09/20/2024,156.31,156.31,154.48,155.91,638051
09/23/2024,156.17,156.905,154.74,155.96,313201
09/24/2024,156.18,157.08,156.03,156.63,243779
09/25/2024,157.3,157.87,155.87,157.14,283958
09/26/2024,157.94,159.06,157.7,158.38,363612
09/27/2024,158.68,161.55,158.26,159.89,354163
09/30/2024,159.29,160.42,158.925,160.19,278081
10/01/2024,160.54,160.54,159.05,159.97,189384
10/02/2024,159.86,160.11,157.955,158.75,179022
10/03/2024,157.99,160.46,156.635,158.94,357338
10/04/2024,159.94,161.47,159.33,160.58,343031
10/07/2024,159.39,159.6355,158.01,158.69,214935
10/08/2024,158.28,159.02,157.1,158.67,192387
10/09/2024,158.35,160.0499,158.12,159.7,149856
10/10/2024,158.05,159.38,158.05,159.22,159341
10/11/2024,160.94,161.917,160.355,161.55,188364
10/14/2024,164.99,167.76,163.46,167.19,469362
10/15/2024,167.32,169.655,166.49,168.68,393950
10/16/2024,168.7,169.2,165.92,166.04,323771
10/17/2024,166.98,168.32,166.52,167.89,233712
10/18/2024,169.1,169.1,167.775,168.63,170804
10/21/2024,168.47,168.49,166.3,166.33,213885
10/22/2024,165.72,166.37,164.81,165.81,224968
10/23/2024,166.51,167.9804,166.155,167.65,315374
10/24/2024,168.32,168.33,166.145,166.55,540815
10/25/2024,168.92,169.845,164.61,168.91,512834
10/28/2024,169.9,171.41,168.76,169.1,344659
10/29/2024,169.03,169.49,167.64,168.7,327840
10/30/2024,168.35,170.2,168.12,169.03,285022
10/31/2024,169.09,170.28,167.86,167.91,322138
11/01/2024,168.1,170.99,167.62,169.41,307871
11/04/2024,169.63,170.57,168.18,168.26,187602
11/05/2024,167.74,170.36,167.74,170.31,201362
11/06/2024,175.15,175.15,172.14,173.16,254713
11/07/2024,174.2,175.46,173.54,174.71,406972
11/08/2024,174.7,177.835,174.485,175.76,297992
11/11/2024,176.32,178.03,175.9,176.15,169707
11/12/2024,176.65,177.24,174.95,175.7,173689
11/13/2024,175.5,176.39,175.045,175.5,165377
11/14/2024,175.15,175.79,173.905,174.1,194928
11/15/2024,172.97,173.76,166.17,166.49,614587
11/18/2024,166.39,167.82,164.33,166.69,382855
11/19/2024,166.42,167.67,166.195,166.9,281535
11/20/2024,167,168.9399,165.65,168.73,217395
11/21/2024,168.69,170.23,167.74,169.88,201839
11/22/2024,170.18,172.07,170.18,171.51,238485
11/25/2024,172.05,174.0223,171.74,172.5,262569
11/26/2024,172.86,172.86,171.16,172.04,134486
11/27/2024,172.67,173.88,171.52,171.73,153191
11/29/2024,172.59,173.49,172.09,172.96,109045
12/02/2024,172.98,173.11,170.835,172.76,160973
12/03/2024,173.45,173.45,171.09,172.4,153083
12/04/2024,171.89,172.89,171.025,172.59,171259
12/05/2024,172.01,172.44,170.53,171.1,236792
12/06/2024,171.6,172.65,170.85,171.15,198424
12/09/2024,171.56,173.465,170.23,170.79,295519
12/10/2024,170.72,171.37,168.19,170.91,279417
12/11/2024,171.88,174.1,171.745,172.31,363206
12/12/2024,171.67,172.6,170.78,171.64,162870
12/13/2024,170.91,171,169.82,170.2,140138
12/16/2024,170.14,170.9279,167.59,167.63,231316
12/17/2024,166.9,166.905,162.84,163.09,509935
12/18/2024,163.69,164.42,157.91,158.21,462960
12/19/2024,158.51,161.57,158.23,158.87,391078
12/20/2024,158.72,159.78,157.4705,158.18,482127
12/23/2024,157.17,158.9,156.96,158.52,192981
12/24/2024,158.78,159.42,157.92,159.35,100338
12/26/2024,158.42,159.63,158.42,158.85,158083
12/27/2024,157.82,159.58,157.61,158.15,142821
12/30/2024,157,157.49,155,156.73,218427
12/31/2024,157.28,158.25,156.18,157.1,304742
01/02/2025,157.65,158.11,153.45,154.16,229239
01/03/2025,154.04,155.715,152.87,155.5,233436
01/06/2025,154,154.64,151.44,152.92,356755
01/07/2025,155.92,156.06,152.6,153.43,352150
01/08/2025,152.89,154.26,152.09,154.15,219203
01/10/2025,152.72,154.3,152.58,153.45,339214
01/13/2025,152.93,154.7,152.93,153.89,316314
01/14/2025,154.81,155.4452,153.48,154.61,187826
01/15/2025,156.12,156.92,154.17,155.56,202138
01/16/2025,155.89,157.165,155.31,156.41,340882
01/17/2025,156.97,157.95,155.68,156.09,223770
01/21/2025,156.72,160.26,156.72,159.83,260985
01/22/2025,159.34,160.75,158.34,159.07,275775
01/23/2025,158.46,159.805,157.725,159.62,140602
01/24/2025,159.65,160.47,157.22,158.3,321162
01/27/2025,158.25,158.92,156.645,158.46,311184
01/28/2025,157.57,160.35,157.57,158.42,198752
01/29/2025,158.78,158.82,156.615,157.11,258467
01/30/2025,157.82,158.675,156.58,158.13,261856
01/31/2025,157.9,159.39,156.76,157.15,769462
02/03/2025,154.58,156.7468,154.14,155.98,357330
02/04/2025,156.09,158.46,156.09,157.7,296330
02/05/2025,158.28,159.66,157.78,158.32,260787
02/06/2025,159.84,159.84,155.37,156.45,444588
02/07/2025,157.62,157.9,142.04,143.18,1217927
02/10/2025,144.26,144.605,140.895,143.28,611632
02/11/2025,142.27,143.07,140.26,142.29,366572
02/12/2025,140.97,143.49,139.93,141.7,419828
02/13/2025,142.75,143.78,141.46,142.77,654292
02/14/2025,143.69,145.31,142.72,144.79,502848
02/18/2025,144.79,147.295,143.895,146.9,482746
02/19/2025,146.14,147.49,145.61,147.04,324061
02/20/2025,146.97,147.415,145.92,146.68,277877
02/21/2025,147.03,147.39,145.2,146.34,415802
02/24/2025,146.18,147.29,144.36,145.61,326135
02/25/2025,145.88,148.33,145.72,147.71,329474
02/26/2025,146.65,149.18,146.62,146.64,714460
02/27/2025,146.23,147.18,145.36,145.63,261232
02/28/2025,146.16,146.95,144.63,146.75,330577
03/03/2025,146.97,148.84,145.685,146.59,389744
03/04/2025,145.54,147.95,145.14,145.94,424887
03/05/2025,146.05,148.85,146.05,148.44,429772
03/06/2025,147.56,151.5,147.06,151.15,464553
03/07/2025,150.51,153.36,149.175,152.78,469226
03/10/2025,152.07,154,150.24,150.57,377641
03/11/2025,150.34,150.56,147.2656,147.89,300765
03/12/2025,148.24,148.24,145.56,146.03,285053
03/13/2025,146.41,147.2,143.76,144.76,237079
03/14/2025,145.23,146.89,144.5397,146.66,211704
03/17/2025,146.51,148,145.86,147.84,218348
03/18/2025,147.39,147.53,145.78,146.3,211399
03/19/2025,146.34,147.46,145.47,146.98,273012
03/20/2025,146.13,147.42,143.725,145.2,323614
03/21/2025,144,145.46,142.36,144.82,581680
03/24/2025,145.75,148.18,144.91,147.99,462681
03/25/2025,148.49,149.23,145.925,147.21,322330
03/26/2025,147.05,148.7,146.3,148.56,626508
03/27/2025,148.28,149.89,147.03,149.35,312676
03/28/2025,149.29,150,145.755,146.93,239805
03/31/2025,146.58,149.09,146.095,148.38,372528
04/01/2025,148.88,150.03,147.38,149.1,239988
04/02/2025,148,151.13,148,150.53,247555
04/03/2025,146.76,150.05,146.46,148.67,352876
04/04/2025,145.22,147.96,140.04,140.18,531626
04/07/2025,136.34,142.12,130.85,134.65,629909
04/08/2025,137.38,139.3075,131.28,133.66,473826
04/09/2025,133.18,144.42,131.32,143.75,491857
04/10/2025,140,143.37,137.57,140.76,308997
04/11/2025,140.87,144.71,139.7366,144.11,203037
04/14/2025,145.8,146.395,143.79,145.79,249303
04/15/2025,146.1,146.54,143.77,143.94,250675
04/16/2025,144.06,145.82,142.575,145,307681
04/17/2025,145.4,145.765,140.71,143.83,390605
04/21/2025,143.3,144.05,141.1,142.58,291626
04/22/2025,144.5,146.8242,143.59,146.02,217767
04/23/2025,147.87,149.32,147.22,148.05,536977
04/24/2025,147.93,152,145.4601,151.46,424550
04/25/2025,150.85,152.9999,147.57,149.06,220485
04/28/2025,149.8,151.03,148.28,149.7,235226
04/29/2025,149.76,151.98,149.01,150.3,359943
04/30/2025,149.07,149.99,147.21,149.95,556176
05/01/2025,148.45,150.53,146.96,148.28,445325
05/02/2025,152.99,153,147.785,152,431607
05/05/2025,151.43,153.215,150.878,151.48,267601
05/06/2025,150.25,152.04,149.415,150.92,311959
05/07/2025,151.88,153.145,150.62,151.39,318398
05/08/2025,151.79,154.575,151.24,153.36,302474
05/09/2025,153.91,154.3,152.94,153.32,231636
05/12/2025,155.79,156.59,153.7,155.52,352482
05/13/2025,156.31,156.31,153.2,153.64,339421
05/14/2025,153.62,153.62,150.97,152.48,350071
05/15/2025,152.35,155.48,152.35,154.95,278108
05/16/2025,155.18,157.15,154.59,157.01,278607
05/19/2025,156.36,158.34,156.31,158.08,185436
05/20/2025,160.26,160.26,157.905,158.53,388100
05/21/2025,156.86,157.647,155.83,156.45,319757
05/22/2025,156.36,157.265,155.56,156.65,278860
05/23/2025,155.12,156.18,154.255,155.94,260545
05/27/2025,157.03,158.44,156.685,158.16,352755
05/28/2025,158.16,158.84,157.255,157.4,364440
05/29/2025,157.83,158.67,156.8225,158.33,232087
05/30/2025,158.24,158.78,156.54,158.4,335104
06/02/2025,157.54,159.07,155.255,156.91,349586
06/03/2025,156.18,157.435,155.995,156.26,397776
06/04/2025,156.49,156.52,150.29,150.41,831919
06/05/2025,151.58,153.34,149.05,152.49,482377
06/06/2025,154.37,154.475,152.21,153.31,264715
06/09/2025,152.71,153.175,151.36,151.6,388353
06/10/2025,152.16,152.995,150.86,152.53,323524
06/11/2025,153,153.59,151.595,151.92,380818
06/12/2025,151.41,154.62,151.41,154.35,337231
06/13/2025,153,153.72,150.73,151.16,361176
06/16/2025,151.24,152.9,151.12,151.69,346150
06/17/2025,150.66,151.265,149.125,149.45,379733
06/18/2025,149.12,150.73,149.12,149.7,383173
06/20/2025,150.29,150.77,148.985,150.3,570491
06/23/2025,149.49,153.94,149.49,153.79,356518
06/24/2025,154.57,154.57,153.18,153.87,246573
06/25/2025,153.86,154.53,152.77,153.93,264690
06/26/2025,154.53,155.58,153.12,154.48,658225
06/27/2025,154.66,156.11,154.23,155.82,643145
06/30/2025,156.03,156.495,154.61,156.43,315502
07/01/2025,156.43,159.8,155.955,159.01,338399
07/02/2025,159.02,160.525,158.65,160.32,293509
07/03/2025,160.6,161.36,159.815,161.04,235097
07/07/2025,160.95,162.37,160.5461,160.96,313925
07/08/2025,160.9,162.58,159.855,160.05,342674
07/09/2025,159.93,160.0121,158.1,159.73,252796
07/10/2025,159.19,160.36,158.33,158.33,361583
07/11/2025,158.56,158.56,156.63,157.9,292046
07/14/2025,157.14,158.94,156.6858,157.56,276595
07/15/2025,157.74,157.996,154.07,154.16,254203
07/16/2025,153.92,155.61,153.5508,154.98,261877
07/17/2025,154.74,156.405,154.51,156.03,397671
07/18/2025,156.85,157.21,154.92,156.38,243092
07/21/2025,156.42,156.665,155.24,155.45,205939
07/22/2025,156.11,159.36,155.225,159.17,449890
07/23/2025,160.07,161.85,159.1362,161.66,450549
07/24/2025,160.96,164.28,159.79,161.82,431871
07/25/2025,162.05,163.09,160.78,160.99,296252
07/28/2025,161.2,161.98,158.16,158.7,308523
07/29/2025,159.05,159.6,157.22,158.82,388206
07/30/2025,158.8,158.93,154.92,156.79,580730
07/31/2025,155.78,157.35,155.18,157.14,679676
08/01/2025,156.97,158.12,141.09,141.35,1012362
08/04/2025,143.12,143.12,137.0815,139.13,838962
08/05/2025,139.34,141.07,137.69,140.22,540781
08/06/2025,140.31,140.76,137.55,138.54,515319
08/07/2025,139.8,141.49,138.914,140.49,564047
08/08/2025,140.69,142.05,140.58,140.75,428743
08/11/2025,141.33,141.615,139.2,139.87,349458
08/12/2025,140.22,141.09,139.23,139.48,286080
08/13/2025,139.69,141.44,139.25,141.43,729895
08/14/2025,140.19,140.19,136.44,138.34,875813
08/15/2025,138.36,138.95,137.87,138.72,770519
08/18/2025,138.89,139.57,137.35,137.89,529518
08/19/2025,138.27,140.52,138.27,139.59,333078
08/20/2025,139.91,141.25,139.26,141.18,519196
08/21/2025,140.63,141.9,140.24,140.64,270413
08/22/2025,141.26,143.33,141.19,141.43,356524
08/25/2025,140.97,141.609,138.96,139.56,245765
08/26/2025,139.07,140.16,138.015,139.71,442886
08/27/2025,139.09,140.57,139.03,139.44,729133
08/28/2025,140.17,140.17,137.4,138.89,320802
08/29/2025,139.17,139.87,138.345,139.27,370750
09/02/2025,137.42,138.525,136.17,136.41,310614
09/03/2025,136.08,136.175,134.44,135.22,382389
09/04/2025,136.345,138.48,135.045,138.46,401811
09/05/2025,139.02,140.82,137.625,138.62,440827
09/08/2025,138.59,140,137.675,138.3,616104
09/09/2025,138.26,139.48,135.1,137.05,637075
09/10/2025,136.13,137.46,134.85,136.25,685117
09/11/2025,136.75,138.28,135.87,137.1,477514
09/12/2025,136.62,137.05,135.22,135.23,261349
09/15/2025,135.97,136.17,134.63,134.85,298041
09/16/2025,134.79,135.42,134.1,135.21,474820
09/17/2025,135.42,137.07,134.185,134.65,377375
09/18/2025,134.9,135.505,134.07,134.5,254839
09/19/2025,134.66,135.1,133.34,134.44,877176
09/22/2025,134.12,134.94,132.67,132.72,402147
09/23/2025,133.01,133.945,131.965,132.02,319736
09/24/2025,132,133.31,131.34,131.5,353330
09/25/2025,131.5,132.52,130.27,130.82,388660
09/26/2025,131.33,132.43,130.96,132.29,274395
09/29/2025,132.4,132.68,131.36,132.27,540602
09/30/2025,131.71,133.76,131.71,133.66,310381
10/01/2025,133.33,134.36,132.31,134.14,310078
10/02/2025,133.66,134.39,132.96,133.18,398515
10/03/2025,132.47,133.58,132.43,133.22,402033
10/06/2025,132.89,133.2,131.41,131.88,447132
10/07/2025,132.11,132.51,129.81,130.59,438789
10/08/2025,131.18,132.015,130.26,131.61,361328
10/09/2025,131.7,132.84,130.2,130.61,554222
10/10/2025,130.94,132.01,129.89,130.93,426005
10/13/2025,130.99,132.35,130.1601,130.22,311422
10/14/2025,130.04,131.06,129.04,129.8,337442
10/15/2025,129.8,130.39,127.86,128.1,438271
10/16/2025,128.44,129.5,127.85,129.16,352687
10/17/2025,129.16,130.0953,128.85,129.34,339743
10/20/2025,129.61,130.09,128.02,130,240513
10/21/2025,130.61,131.7699,129.12,130.57,311561
10/22/2025,130.65,132.11,129.98,130.06,357471
10/23/2025,129.74,131.53,129.66,130.77,378634
10/24/2025,130.75,130.89,128.54,128.88,489311
10/27/2025,129.14,129.9,128.45,128.78,521664
10/28/2025,128.75,129.11,127.47,128.1,413500
10/29/2025,127.28,127.5,123.42,124.31,651086
10/30/2025,124.04,125.52,123.04,124.36,702671
10/31/2025,115.29,118.1,103.227,116.01,2758273
11/03/2025,116.09,116.09,108.29,113.12,1661017
11/04/2025,114.36,116,112.525,114.18,1029138
11/05/2025,114.33,116.035,112.77,115.57,896945
11/06/2025,115.02,116.955,113.8,116.15,880317
11/07/2025,116.23,116.915,114.685,116.22,697209
11/10/2025,115.99,116.77,114,116.38,514004
11/11/2025,116.96,119.51,116.96,118.27,484777
11/12/2025,118.34,119.67,117.91,118.16,547506
11/13/2025,118.3,121.88,118.3,120.2,679444
11/14/2025,119.77,120.69,118.39,118.61,521175
11/17/2025,118.49,119.485,117.565,119.34,820246
11/18/2025,119.66,120.105,118.06,119.31,817365
11/19/2025,119.51,119.51,117.71,118,598851
11/20/2025,118,119.61,117.365,118.58,507353
11/21/2025,118.13,122.24,118.13,121.52,509095
11/24/2025,120.85,122.4,120.44,121.47,740035
11/25/2025,122.41,124.08,122.41,123.44,543643
11/26/2025,123.02,124.52,123.02,123.81,538032
11/28/2025,123.63,126.08,123.63,124.75,315680
12/01/2025,124.88,124.96,123.03,123.28,536838
12/02/2025,123.77,123.855,120.8,121.6,325372
12/03/2025,121.45,124.255,121.41,122.06,543097
12/04/2025,122.2,124.075,121.93,122.02,707965
12/05/2025,121.99,123.5067,120.62,121.91,537041
12/08/2025,120.92,122.1,119.3,120.07,496615
12/09/2025,119.6,119.845,115.36,115.72,640262
12/10/2025,116.17,117.8,115.1301,117.17,734713
12/11/2025,117.96,118.665,117.16,118.01,389717
12/12/2025,118.52,121.64,117.65,121.47,656392
12/15/2025,121.48,122.46,120.4801,122.33,588586
12/16/2025,122.67,123.85,119.52,122.83,644802
12/17/2025,122.11,124.6,120.0775,123.63,567293
12/18/2025,123.67,124.12,122.025,122.62,457122
12/19/2025,123.34,124.33,121.26,121.39,1300395
12/22/2025,121.39,123.7,121.0701,122.74,527751
12/23/2025,122.87,123.03,121.32,122.19,311665
12/24/2025,122.53,123.1746,121.7601,122.75,198018
12/26/2025,122.37,123.48,121.7197,123.25,306003
12/29/2025,123.29,124.31,122.32,123.21,400189
12/30/2025,122.8,124.2999,122.42221,122.74,289781
12/31/2025,121.52,123.3321,121.3467,121.96,314335
01/02/2026,121.74,123,120.78,122.54,295067
01/05/2026,121.76,124.5799,121.755,123,435656
01/06/2026,122.22,122.85,120.11,120.56,777184
01/07/2026,120.67,121.95,117.61,120.44,478485
01/08/2026,119.92,123.37,119.52,122.44,330023
01/09/2026,122.08,124.965,121.46,123.85,429084
01/12/2026,124,125.3,122.98,125.13,477342
01/13/2026,125.05,125.44,122.5385,123.5,351904
01/14/2026,124.11,127.16,124.11,126.85,611741
01/15/2026,127.14,127.22,124.52,125.11,381006
01/16/2026,124,125.2,123.24,124.71,363405
01/20/2026,124.9,125.53,123.44,123.82,275138
01/21/2026,124.31,125.62,123.9,125.01,421092
01/22/2026,125.05,126.41,124.06,124.47,369685
01/23/2026,124.34,126.2799,123.865,126,429452
01/26/2026,126.42,126.985,125.1,126.35,315413
01/27/2026,124.95,126.3,124.1701,124.74,303123
01/28/2026,124.2,125.065,123.25,123.7,347815
01/29/2026,124.29,125.28,122.585,123.85,386029
01/30/2026,122.91,125.01,122.66,124.95,512660
02/02/2026,124.2,125.9072,124.2,124.83,489079
02/03/2026,123.91,127.93,123.69,124.63,658715
02/04/2026,125.71,130.4225,124.7,129.23,589460
02/05/2026,127.67,129.08,121.96,123.98,2144182
02/06/2026,127.53,135.99,127.53,134.31,1045699
02/09/2026,133.58,139.5699,133.25,138.47,1043367
02/10/2026,137.81,140.93,137.81,140.17,622080
02/11/2026,139.03,140.55,138.595,140.01,584271
02/12/2026,140.16,142,139.385,140.51,572705
02/13/2026,140.51,142.93,140.41,142.58,471898
02/17/2026,139.26,143.62,139.26,141.65,614714
02/18/2026,141.47,143.11,140.84,141.72,582018
02/19/2026,141.65,143.318,141.03,143.16,525547
02/20/2026,143.12,145.14,142,145.05,664455
02/23/2026,143.49,146.24,143.13,145.72,513503.7
02/24/2026,146.07,146.91,143.85,144.14,429802.22
02/25/2026,142.41,143.66,140.4301,142.68,348947.22
02/26/2026,143.52,143.92,141,141.79,331291.12
02/27/2026,141.53,144.01,141,143.71,344632.75
03/02/2026,143,143.35,141.62,142.67,335035.38
03/03/2026,140.64,141.315,136.92,139.76,347292.44
03/04/2026,139.34,139.505,136.005,137.04,388995.78
03/05/2026,136,136.3365,134.41,134.73,452280.6
03/06/2026,134,134,131,132.08,398478.2
03/09/2026,130.97,133.98,127.53,133.75,545650.9
03/10/2026,133.35,134.13,131.4,132.13,503067.34
03/11/2026,131.8,133.28,130.04,132.02,563849.4
03/12/2026,131.27,132.79,128.64,128.86,620574.2
03/13/2026,130.15,130.15,127.05,128.65,660585.25
03/16/2026,129.48,131.41,126,129.05,370688.34
03/17/2026,129.97,131.0175,128.2401,129.5,276759.1
03/18/2026,124.38,126.575,121.42,124.22,910517.75
03/19/2026,123.01,124.82,121.45,123.97,518465.7
03/20/2026,124.26,124.26,120.31,121.06,1481541.9
03/23/2026,123.51,126.3383,122.985,124.14,455211.3
03/24/2026,123.16,125.215,122.87,124.15,405029.8
03/25/2026,125.44,126.5699,123.705,125.82,337183.16
03/26/2026,125.22,127.335,124.115,124.69,442053.53
03/27/2026,123.94,124.21,121.76,121.99,381351.16
