11/01/2024,53.5,61.2299,51.75,52.49,2332875
11/04/2024,51.12,55.82,50,53.7,1307828
11/05/2024,53.89,55.24,51.51,51.51,1732450
11/06/2024,52.5,56.06,51.9,54.61,1159751
11/07/2024,55,63.33,55,62.1,1568645
11/08/2024,62.91,63.63,61.33,62.93,1151125
11/11/2024,62.59,67.1099,62.59,63.85,1474084
11/12/2024,63.75,65.0165,59.83,61.03,619113
11/13/2024,61.53,64.21,58.91,59.22,336599
11/14/2024,59.13,60.78,56.59,56.74,534430
11/15/2024,55.56,57.13,55.4456,56.34,509797
11/18/2024,56.32,59.86,56.18,59.32,697727
11/19/2024,58.98,62.94,58.6,61.39,344778
11/20/2024,61.23,61.93,60.07,60.08,451472
11/21/2024,60.39,64.35,59.985,64.28,819143
11/22/2024,64.73,66.25,63.97,65.07,468312
11/25/2024,66,67.99,63.52,63.91,510402
11/26/2024,64.02,65.57,63.52,64.55,362141
11/27/2024,64,65,63.315,64.66,417260
11/29/2024,65.52,65.52,63.305,63.66,255596
12/02/2024,63.4,64.13,61.88,62.9,370438
12/03/2024,62.57,65.87,61.54,65.47,628478
12/04/2024,67.24,68.31,64.65,67.25,486965
12/05/2024,69.15,70.37,66.1933,68.24,605384
12/06/2024,69.01,70.2499,66.91,68.62,349793
12/09/2024,67.92,69.68,66.5444,66.95,445754
12/10/2024,66.99,67.78,65.59,66.16,298497
12/11/2024,67.09,67.85,65.82,67.83,689781
12/12/2024,67.81,71.035,67.23,68.8,700172
12/13/2024,68.78,69.475,67.05,68.17,309865
12/16/2024,68.34,71.42,67.59,71.16,428163
12/17/2024,70.7,70.77,68.83,69.67,639500
12/18/2024,70.47,71.26,68.06,68.5,1093577
12/19/2024,68.82,69.98,64.22,64.6,1075777
12/20/2024,63.55,67.39,62.56,67.09,1062748
12/23/2024,66.57,68.82,66.375,68.8,371077
12/24/2024,68.76,70.65,68.4,70.58,168274
12/26/2024,70.36,73.73,69.77,73.61,225396
12/27/2024,72.75,73.01,69.05,69.85,270058
12/30/2024,69.16,69.17,66.22,66.87,427253
12/31/2024,66.99,67.52,65.28,65.75,553133
01/02/2025,66.25,70.65,65.77,69.28,709357
01/03/2025,68.92,69.93,67.345,68.96,583935
01/06/2025,69.1,70.75,67.48,67.7,403773
01/07/2025,67.67,70.14,67.45,69.12,495628
01/08/2025,68.59,69.82,66.53,66.66,384343
01/10/2025,66.13,67.53,64.6,64.67,266394
01/13/2025,64.55,66.06,64.5,65.87,269307
01/14/2025,66.64,69.92,66.64,69.34,204638
01/15/2025,71.9,73.83,69.88,69.95,460905
01/16/2025,69.9,70.2,66.18,66.29,635371
01/17/2025,66.8,71.24,66.5,69.68,1455137
01/21/2025,70.76,73.505,69.67,72.5,319991
01/22/2025,72.92,77.0299,72.575,76.1,586313
01/23/2025,75.45,76.21,74.025,75.34,519420
01/24/2025,75.32,77.9325,75.2,76.76,730412
01/27/2025,73.25,73.3,66.07,68.45,1705271
01/28/2025,70.07,70.75,64.86,67.99,747562
01/29/2025,67.7,69.035,66.36,66.56,515710
01/30/2025,68.32,71.23,67.6,70.49,465537
01/31/2025,70.96,71.08,67.305,68.81,748814
02/03/2025,66.81,68.74,66.47,66.65,424968
02/04/2025,66.65,68.12,65.885,67.61,357904
02/05/2025,68.16,70.35,67.24,69.08,352755
02/06/2025,69.75,71.0117,68.25,70.72,277077
02/07/2025,71.21,72.3,70.02,70.28,437229
02/10/2025,70.6,71,68.1825,69.92,371994
02/11/2025,69.14,69.86,66.87,68.42,455297
02/12/2025,65.89,65.89,55.51,55.99,2042294
02/13/2025,56,56.05,47.62,49.54,1851638
02/14/2025,49.41,50.41,47.34,48.14,1010357
02/18/2025,48.46,49.2099,46.3,47.89,973589
02/19/2025,47.51,47.86,46.16,46.58,818424
02/20/2025,47.29,47.38,45.73,46.54,639794
02/21/2025,46.81,46.91,43.395,43.56,741130
02/24/2025,43.24,43.83,38.46,38.62,1371834
02/25/2025,38.64,42.94,37.84,42.3,1367930
02/26/2025,42.42,45.83,42.31,45,1247075
02/27/2025,44.72,46,41.75,41.9,1675977
02/28/2025,41.79,43.1,41.13,41.6,773364
03/03/2025,41.94,41.955,38.985,39.29,509856
03/04/2025,38.61,38.97,37.18,38.01,560878
03/05/2025,38.1,39.95,37.51,39.86,664946
03/06/2025,38.66,39.8,37.65,39.54,771352
03/07/2025,39.75,40.25,38,39.97,484997
03/10/2025,39.13,39.61,38.17,38.24,836382
03/11/2025,38.6,39.97,37.56,37.9,756844
03/12/2025,39.04,39.6899,37.27,38.73,603766
03/13/2025,38.76,39.1,37,37.79,555059
03/14/2025,38.65,40.35,37.47,38.05,924335
03/17/2025,38.13,39.38,37.66,38.98,625377
03/18/2025,38,38.36,36.96,37.69,374785
03/19/2025,37.6,40.4299,37.58,39.96,590832
03/20/2025,39.5,41,39.208,40.2,591360
03/21/2025,39.47,40.35,38.94,39.21,1634664
03/24/2025,39.95,41.69,39.64,41.35,469557
03/25/2025,41.29,41.62,38.4,38.58,433656
03/26/2025,38.65,38.94,36.275,36.87,538020
03/27/2025,36.29,36.75,34.41,34.97,801732
03/28/2025,34.76,36.23,33.9,36.18,943847
03/31/2025,35.49,37.255,35.14,37.09,705725
04/01/2025,37.03,37.86,36.03,37.6,850905
04/02/2025,36.78,38.37,36.71,38.37,973627
04/03/2025,37.01,37.68,34.745,35.31,803077
04/04/2025,33.39,34.3863,31.38,33.6,818623
04/07/2025,32.75,35.55,32.255,35.21,1222938
04/08/2025,36.57,36.96,34.36,35.07,1059463
04/09/2025,34.55,40.21,34.55,39.58,783712
04/10/2025,38.2,39.38,37.1978,37.97,567797
04/11/2025,37.74,39.01,37.06,38.5,742506
04/14/2025,39.41,40,36.91,37.51,609832
04/15/2025,37.7,38.82,37.42,38.54,555948
04/16/2025,37.63,38.59,37.24,38.17,760735
04/17/2025,38.25,38.975,37.805,38.85,734774
04/21/2025,38.34,38.34,35.1948,35.74,396905
04/22/2025,36.08,37.475,36.08,36.94,408429
04/23/2025,39.79,40.16,38.13,38.46,324770
04/24/2025,38.9,41.3,37.7238,40.97,462457
04/25/2025,40.55,41.2,40.1,40.85,437834
04/28/2025,40.69,42.175,40.04,40.79,418683
04/29/2025,40.73,40.94,39.7,40.64,377682
04/30/2025,39.16,40.25,38.515,40.24,449467
05/01/2025,41.17,43.61,40.725,42.84,708541
05/02/2025,43.5,46.11,43.25,45.12,785534
05/05/2025,44.61,45.83,44.61,45.4,643737
05/06/2025,44.55,45.77,43.86,45.35,400006
05/07/2025,45.45,46.97,44.97,46.59,553100
05/08/2025,47.4,49.04,47.12,48.27,719636
05/09/2025,48.63,49.2,47.77,47.93,781592
05/12/2025,50.3,51.14,49.11,50.1,769064
05/13/2025,50.3,53.01,50.3,51.42,1148354
05/14/2025,59.3,65,56.4975,60.3,3734477
05/15/2025,59.3,61.42,59.3,61.24,1147000
05/16/2025,61.24,61.51,58.79,59.48,693704
05/19/2025,58.34,60.415,58.1801,59.26,483468
05/20/2025,59.01,60.07,58.23,58.98,458421
05/21/2025,58.47,59.105,56.285,56.81,572322
05/22/2025,57.16,58.03,55.31,57.39,618701
05/23/2025,56.81,57.89,56.42,56.7,365477
05/27/2025,57.65,59.54,56.4901,59.45,673381
05/28/2025,59.19,59.35,58,58.78,356707
05/29/2025,59.19,59.19,57.59,57.87,307063
05/30/2025,57.48,58.31,56.1,57.91,545768
06/02/2025,57.94,58.5,56.3804,57.58,322233
06/03/2025,57.92,60.34,57.3701,60.2,285396
06/04/2025,60.86,61.235,59.76,59.78,339278
06/05/2025,60.3,60.9999,59.18,60.4,267141
06/06/2025,61.3,61.69,60.635,61.19,230361
06/09/2025,61.59,61.9,60.17,61.03,367747
06/10/2025,61.52,61.61,58.7,59.83,370622
06/11/2025,60.4,60.5571,59.65,60.31,162887
06/12/2025,60.31,60.97,59.52,60.44,351657
06/13/2025,59.58,60.33,58.86,59.54,188528
06/16/2025,60.6,61.5,59.74,59.77,322387
06/17/2025,58.71,60.28,58,59.75,330160
06/18/2025,60.2,61.57,59.26,59.79,336170
06/20/2025,59.65,60.2,58.08,59.18,530538
06/23/2025,59.02,61.48,58.9701,60.76,380988
06/24/2025,61.42,62.13,61,61.94,220752
06/25/2025,62.46,62.815,60.63,61.74,373064
06/26/2025,62.31,62.62,61.498,61.95,251183
06/27/2025,62.09,64.045,62.09,63.42,467349
06/30/2025,63.69,64.585,63.03,63.53,501697
07/01/2025,63.31,63.9344,60.7825,62.81,434196
07/02/2025,62.96,64.28,62.43,64.05,255647
07/03/2025,64.33,65.9999,64,65.16,155084
07/07/2025,65.09,65.3,63.65,64.35,247031
07/08/2025,64.56,65.82,62.925,65.31,433335
07/09/2025,65.99,67.81,65.392,67.45,441056
07/10/2025,67.61,68.8,66.595,67.34,475532
07/11/2025,68.25,69.875,67.64,68.81,294707
07/14/2025,68.98,69.28,67.905,68.68,293229
07/15/2025,69.29,69.306,67.036,68.33,494991
07/16/2025,67.785,69.7,65.972,69.27,487557
07/17/2025,69.3,70,67.76,69.2,478013
07/18/2025,69.31,69.54,67.831,69.17,850052
07/21/2025,69.96,70.38,68.43,68.81,525903
07/22/2025,68.05,68.19,65.27,66.7,1129480
07/23/2025,67.64,69.18,65.905,69.01,375644
07/24/2025,69.24,69.77,67.8,69,236868
07/25/2025,69.33,73.59,68.95,73.53,701832
07/28/2025,73.71,74.24,72.3672,72.47,682441
07/29/2025,73.13,75,72.56,74.1,501793
07/30/2025,74.14,75.71,73.92,75.29,527476
07/31/2025,75.61,76.18,73.9925,74.26,502762
08/01/2025,71.71,72.81,68.51,70.17,637009
08/04/2025,71.71,72.09,70.495,72,391574
08/05/2025,73.01,74.84,71.78,72.94,324721
08/06/2025,72.8,73.08,71.06,73.07,354014
08/07/2025,73.4,74.625,71.3,71.53,241805
08/08/2025,71.61,71.74,69.94,71.42,339305
08/11/2025,71.65,71.82,69.61,70.88,390335
08/12/2025,71.56,76.65,70.93,75.8,866702
08/13/2025,83.6,90,77.07,79.16,3150709
08/14/2025,78.5,79.35,74.77,75.31,1186507
08/15/2025,75.07,75.82,73.02,75.69,694114
08/18/2025,75.95,76.7499,74.805,76.17,670018
08/19/2025,76.43,76.43,74.5484,75.37,508559
08/20/2025,74.59,75.12,72.43,74.78,589067
08/21/2025,74.78,75.9899,73.86,75.79,580283
08/22/2025,75.98,78.31,75.11,76.11,352524
08/25/2025,76.61,77.6531,75.4,75.61,343525
08/26/2025,75.57,78.58,75.555,78.56,528303
08/27/2025,78.36,78.36,76.57,77.33,301283
08/28/2025,77.27,80.5225,77.08,80.31,539746
08/29/2025,80.91,80.91,77.42,78.44,537943
09/02/2025,76.52,76.7,75.4,76.24,335846
09/03/2025,76.61,77.275,75.04,75.35,240882
09/04/2025,76.18,77.68,75.011,77.39,408763
09/05/2025,77.65,77.9104,73.14,74.17,593142
09/08/2025,74.27,75.3612,73,75.05,302109
09/09/2025,75.66,76.36,73.015,75.91,544585
09/10/2025,76.55,79.47,76.55,77.57,433893
09/11/2025,78.59,79.42,77.734,79.2,289712
09/12/2025,78.88,79.18,77.67,78.67,337068
09/15/2025,79.28,80.4425,78.554,79.24,295488
09/16/2025,78.47,79.075,77.94,78.97,250499
09/17/2025,79.37,81.475,78.77,78.82,438782
09/18/2025,79.85,83.36,78.18,81.89,443125
09/19/2025,82.11,82.6823,80.945,82.23,997818
09/22/2025,81.82,83,80.682,82.51,289682
09/23/2025,82.39,83.1803,81.12,81.34,279900
09/24/2025,82.31,82.87,79.46,79.81,547159
09/25/2025,78.47,80.23,77.86,79.28,198798
09/26/2025,79.5,83.57,78.935,83.35,418220
09/29/2025,83.35,84.15,82.22,82.99,479752
09/30/2025,83.35,86.06,82.5539,85.75,485510
10/01/2025,84.82,85.64,82.33,82.91,593476
10/02/2025,83.3,83.81,81.57,81.62,524391
10/03/2025,81.4,81.62,79.31,80.07,410054
10/06/2025,80.9,83.3399,80.59,81.82,221801
10/07/2025,83.12,83.58,80.64,82.62,277038
10/08/2025,82.2,86.05,82.12,86.03,250630
10/09/2025,86.48,88.33,85.09,87.75,804596
10/10/2025,87.86,89.3353,82.51,82.85,724949
10/13/2025,86.01,88.92,84.75,86.83,431181
10/14/2025,84.77,88.94,84.0211,88.8,327734
10/15/2025,90.41,91.3771,88.93,90.66,598431
10/16/2025,91.32,91.72,89.6,90.51,349927
10/17/2025,89.41,90.19,85.89,88.46,493891
10/20/2025,89.72,91.3,89.26,91.13,277835
10/21/2025,91.26,92,88.11,90.21,329566
10/22/2025,90.89,90.89,81.87,82.03,777204
10/23/2025,82.67,87.89,82.308,87.5,292708
10/24/2025,91,94.84,90.92,93.89,492748
10/27/2025,95.2,95.9,91.26,91.68,434896
10/28/2025,91.68,91.68,88.87,90.95,273772
10/29/2025,90.95,93.66,90.185,91.94,255131
10/30/2025,90.52,92,88.51,89.69,388231
10/31/2025,89.9,92.4299,89.3,90.89,421456
11/03/2025,91.31,92.491,88.88,90.23,549293
11/04/2025,87.11,89.86,83.89,86.63,789174
11/05/2025,97.37,98.35,89.615,93.28,988063
11/06/2025,96.91,100.01,94.575,98.32,732087
11/07/2025,96.34,98.3,93.5,97.81,465756
11/10/2025,100.75,101.415,97.5401,100.85,354911
11/11/2025,99.53,100.38,98.48,100.01,257687
11/12/2025,100.96,103.08,99.46,99.59,427242
11/13/2025,99.39,100.03,90.75,91.58,595683
11/14/2025,89.45,92.155,87.91,90.18,603616
11/17/2025,89.31,90.325,86.26,87.03,540101
11/18/2025,85.32,87.985,85.09,85.55,641540
11/19/2025,86.86,87.545,84.53,84.63,686092
11/20/2025,87.11,89.65,79.95,80.42,679771
11/21/2025,81.25,83.005,78.14,82.48,858866
11/24/2025,83.42,87.02,83,86.45,676809
11/25/2025,86.5,88.29,83.2,87.45,829959
11/26/2025,87.79,91.735,86.83,90.71,812499
11/28/2025,91.28,92.205,90.75,91.96,207319
12/01/2025,89.56,91.34,88.95,90.85,420365
12/02/2025,91.55,92.74,90.7,91.39,417252
12/03/2025,91.51,93.37,88.65,92.88,455557
12/04/2025,92.24,95.7597,91.04,94.48,384778
12/05/2025,93.71,94.2311,89.2932,91.75,547634
12/08/2025,92.66,93.4699,90.725,91.22,581691
12/09/2025,92.36,93.96,90.83,91.46,589391
12/10/2025,91.58,96.77,91.13,96.25,382325
12/11/2025,95.27,101.34,94.4,101.21,447631
12/12/2025,101.12,101.12,84.58,88.09,1713938
12/15/2025,88.74,91.41,87.22,89.57,604342
12/16/2025,90.19,91.57,87.68,89.22,448103
12/17/2025,89.04,89.7,83.37,84.11,588453
12/18/2025,87.47,88.09,85.66,87.2,354773
12/19/2025,87.58,89.65,87.58,89.03,1048966
12/22/2025,91.06,91.65,89.2,90.01,313448
12/23/2025,89.96,90.65,89.2,89.91,320823
12/24/2025,89.91,90.5217,88.925,89.66,168848
12/26/2025,89.76,90.72,88.94,90.09,228497
12/29/2025,89.6,90.65,88.04,88.82,432248
12/30/2025,88.79,89.705,87,87.63,259462
12/31/2025,87.71,87.71,85.12,85.56,328181
01/02/2026,86.51,90.54,86.51,89.18,273581
01/05/2026,90.28,93.42,90.28,91.69,602402
01/06/2026,91.36,91.36,86,88.14,645854
01/07/2026,88.83,90.75,87.34,88.6,507809
01/08/2026,87.99,89.03,85.6,87.28,882404
01/09/2026,88.19,89.475,85.12,85.33,996549
01/12/2026,83.53,86.16,83.39,85.28,1741473
01/13/2026,86.01,86.93,84.25,85.66,1935794
01/14/2026,87.54,88.29,84.43,86.6,895015
01/15/2026,88.03,91.08,88.03,89.3,646642
01/16/2026,89.77,94.95,89.77,92.6,1114850
01/20/2026,91.68,93.515,90.05,91.7,452359
01/21/2026,93.18,95.2,91.51,94.38,513049
01/22/2026,95.15,95.41,90.09,92.06,412627
01/23/2026,92.08,93.64,90.48,91.22,662946
01/26/2026,90.34,93.51,90.34,91.6,384393
01/27/2026,92.65,94.98,92.57,93.85,371512
01/28/2026,94.11,95.5,92.7101,93.75,465115
01/29/2026,93.21,96.75,90.49,92.03,608342
01/30/2026,89.93,92.73,88.07,88.49,1514552
02/02/2026,87.81,90.7,87.66,90.64,661582
02/03/2026,93.05,94.19,90.24,92.9,444843
02/04/2026,93.25,94.07,84.95,85.69,729451
02/05/2026,84,90.09,84,88.96,594085
02/06/2026,91.5,97.63,90.13,97.29,540113
02/09/2026,97.94,101.99,97.21,101.6,485737
02/10/2026,101.66,101.66,97.59,97.88,403287
02/11/2026,99.97,105,99.75,102.5,856072
02/12/2026,102.66,105.52,99.3,101.27,653176
02/13/2026,101.52,107.6499,101.5,105.16,585073
02/17/2026,104.11,104.6,99.93,101.53,477340
02/18/2026,102.03,105.78,101.62,102.07,409214
02/19/2026,101.83,105.63,101.37,104.53,412358
02/20/2026,104.08,109.32,104.08,108.16,585475
02/23/2026,107.5,110,105.02,106.08,651427.25
02/24/2026,105,108.34,101.31,104.21,885461
02/25/2026,117.32,137.64,114.7,130.1,2975442
02/26/2026,130.05,130.615,119.09,122.16,1533787.9
02/27/2026,119.52,122.055,117.5,120.87,698024.2
03/02/2026,119.06,124.9,118.43,119.3,815097.4
03/03/2026,116.05,118.05,110.81,116.14,872037.94
03/04/2026,117.87,120.79,116.11,118.99,792330.5
03/05/2026,116.37,117.545,109.35,111.96,702655.4
03/06/2026,107.35,112.71,107.12,110.25,344884.94
03/09/2026,108,116.37,107.39,116.17,595834.3
03/10/2026,116.88,119.9799,115.545,115.77,511088.7
03/11/2026,115.3,119.84,113.16,117.04,621043.3
03/12/2026,114.45,115.6,111.259,112.93,406128.47
03/13/2026,114.37,116.15,110.77,112.6,449137.84
03/16/2026,114.81,118.86,113.09,114.55,524431.56
03/17/2026,114.88,116.715,113.475,116.15,281963.16
03/18/2026,116.83,118.45,114.875,115.77,369214.4
03/19/2026,112.81,118.49,111.5,117.51,363685.94
03/20/2026,117.28,117.28,109.55,110.95,1251825.2
03/23/2026,113.82,119.99,113.5,117.27,367927.44
03/24/2026,117.02,121.15,115.35,120.79,388852.16
03/25/2026,122.46,124.53,120.3,123.29,337582.75
03/26/2026,120.12,122.5299,114.51,115.09,410532.78
03/27/2026,115.51,119.2967,115.13,117.31,353759.66
