12/01/2022,17.0217,17.0217,17.0217,17.0217,3
12/02/2022,16.88,16.9671,16.88,16.9671,100
12/05/2022,16.5024,16.5024,16.5024,16.5024,1
12/06/2022,16.2161,16.2161,16.2161,16.2161,3
12/07/2022,16.22,16.3599,16.22,16.315,1351
12/08/2022,16.7,16.7,16.565,16.565,308
12/09/2022,16.34,16.34,16.305,16.305,293
12/12/2022,16.47,16.505,16.47,16.505,102
12/13/2022,16.67,16.84,16.67,16.7579,338
12/14/2022,16.88,16.88,16.6791,16.6791,101
12/15/2022,16.26,16.26,16.215,16.215,160
12/16/2022,16.06,16.06,16.06,16.06,1
12/19/2022,15.7801,15.7801,15.74,15.74,132
12/20/2022,15.86,15.86,15.86,15.86,10
12/21/2022,16.1,16.19,16.1,16.19,3071
12/22/2022,16.0331,16.0331,16.0331,16.0331,0
12/23/2022,15.78,15.78,15.78,15.78,4
12/27/2022,15.6,15.6001,15.6,15.6,379
12/28/2022,15.58,15.58,15.58,15.58,2
12/29/2022,16.0004,16.0004,16.0004,16.0004,22
12/30/2022,15.71,15.9537,15.71,15.9537,744
01/03/2023,15.8501,15.8553,15.75,15.8553,218
01/04/2023,16.0743,16.0743,16.0743,16.0743,0
01/05/2023,15.875,15.875,15.875,15.875,1
01/06/2023,15.89,15.9681,15.89,15.9681,1000
01/09/2023,16.12,16.12,16.12,16.12,65
01/10/2023,16.315,16.315,16.315,16.315,8
01/11/2023,16.525,16.525,16.525,16.525,23
01/12/2023,16.505,16.505,16.505,16.505,97
01/13/2023,16.7479,16.7479,16.7479,16.7479,59
01/17/2023,16.75,16.92,16.75,16.92,234
01/18/2023,17.0743,17.0743,16.7426,16.7426,131
01/19/2023,16.51,16.62,16.51,16.5379,1728
01/20/2023,16.63,16.86,16.63,16.86,190
01/23/2023,17.14,17.14,16.97,17.126,1206
01/24/2023,16.9544,16.9544,16.9544,16.9544,106
01/25/2023,16.6,16.77,16.6,16.77,612
01/26/2023,16.9626,16.9626,16.9626,16.9626,99
01/27/2023,16.91,17.0516,16.91,17.0516,3261
01/30/2023,16.8,16.83,16.78,16.79,1771
01/31/2023,16.8489,17.0188,16.815,17.0091,5547
02/01/2023,17.3089,17.3089,17.3089,17.3089,43
02/02/2023,17.8096,18.0581,17.8096,17.968,452
02/03/2023,17.92,17.92,17.6001,17.6001,316
02/06/2023,17.6,17.6,17.259,17.259,215
02/07/2023,17.249,17.5853,17.249,17.5853,706
02/08/2023,17.285,17.285,17.285,17.285,23
02/09/2023,17.28,17.2801,16.8451,16.86,9335
02/10/2023,16.9,16.9,16.835,16.835,490
02/13/2023,17.1516,17.1516,17.1509,17.1509,222
02/14/2023,17.1153,17.1153,17.1153,17.1153,75
02/15/2023,17.3687,17.3687,17.3687,17.3687,10
02/16/2023,17.1771,17.1771,17.1771,17.1771,33
02/17/2023,16.92,17.0359,16.92,17.0359,965
02/21/2023,16.63,16.63,16.575,16.575,301
02/22/2023,16.532,16.66,16.53,16.5758,34872
02/23/2023,16.62,16.62,16.62,16.62,50
02/24/2023,16.3301,16.3874,16.33,16.3874,216
02/27/2023,16.528,16.528,16.42,16.42,750
02/28/2023,16.59,16.59,16.54,16.54,13031
03/01/2023,16.4312,16.559,16.4312,16.559,300
03/02/2023,16.925,16.925,16.925,16.925,2
03/03/2023,17.43,17.43,17.43,17.43,12
03/06/2023,17.3655,17.3655,17.095,17.095,241
03/07/2023,17.02,17.02,16.89,16.89,1210
03/08/2023,16.77,16.77,16.77,16.77,64
03/09/2023,16.88,16.88,16.4388,16.4388,40631
03/10/2023,16.13,16.13,15.8854,15.8854,803
03/13/2023,15.83,16.65,15.83,16.41,1877
03/14/2023,16.62,16.72,16.49,16.5829,30618
03/15/2023,16.3698,16.5109,16.3698,16.5109,118
03/16/2023,16.72,16.78,16.72,16.78,269
03/17/2023,16.5103,16.5103,16.5103,16.5103,99
03/20/2023,16.53,16.53,16.53,16.53,14
03/21/2023,16.93,16.93,16.93,16.93,22
03/22/2023,16.879,16.9201,16.5502,16.5502,738
03/23/2023,16.6799,16.6799,16.5284,16.5284,224
03/24/2023,16.5,16.6606,16.5,16.6606,384
03/27/2023,16.8599,16.8599,16.7403,16.7403,331
03/28/2023,16.6,16.6,16.45,16.45,1321
03/29/2023,16.71,16.71,16.71,16.71,103
03/30/2023,16.77,16.79,16.7205,16.7205,968
03/31/2023,17.1085,17.1085,17.1085,17.1085,0
04/03/2023,16.995,16.995,16.995,16.995,11
04/04/2023,16.955,16.955,16.955,16.955,102
04/05/2023,16.8835,16.8835,16.8835,16.8835,101
04/06/2023,16.89,16.89,16.89,16.89,102
04/10/2023,16.8539,16.9414,16.8539,16.9414,1101
04/11/2023,17.1473,17.1473,17.1473,17.1473,6
04/12/2023,17.04,17.04,17.0228,17.0228,5265
04/13/2023,17.375,17.375,17.375,17.375,1
04/14/2023,17.2574,17.2574,17.2574,17.2574,0
04/17/2023,17.4019,17.4019,17.4019,17.4019,3
04/18/2023,17.369,17.369,17.345,17.345,251
04/19/2023,17.565,17.81,17.565,17.784,411
04/20/2023,17.6278,17.6278,17.6278,17.6278,22
04/21/2023,17.8519,17.8519,17.8519,17.8519,1
04/24/2023,17.831,17.831,17.81,17.81,287
04/25/2023,17.5503,17.5503,17.3302,17.3302,131
04/26/2023,17.25,17.25,17.15,17.2106,628
04/27/2023,16.86,17.0996,16.86,17.0996,363
04/28/2023,17.1975,17.3252,17.1975,17.3252,344
05/01/2023,17.3043,17.3043,17.3043,17.3043,300
05/02/2023,16.972,16.972,16.972,16.972,3
05/03/2023,17.1595,17.1595,17.1595,17.1595,0
05/04/2023,17.039,17.0753,17.039,17.0753,516
05/05/2023,17.29,17.29,17.29,17.29,25
05/08/2023,17.2255,17.2255,17.2255,17.2255,0
05/09/2023,17.1881,17.1881,17.1881,17.1881,0
05/10/2023,17.44,17.48,17.44,17.48,183
05/11/2023,17.31,17.31,17.31,17.31,10
05/12/2023,17.29,17.3038,17.29,17.3038,246
05/15/2023,17.3739,17.3739,17.3739,17.3739,25
05/16/2023,17.145,17.145,17.145,17.145,14
05/17/2023,17.12,17.12,17.095,17.095,218
05/18/2023,17.16,17.16,17.16,17.16,0
05/19/2023,17.2901,17.2901,17.2248,17.2248,225
05/22/2023,17.49,17.49,17.49,17.49,0
05/23/2023,17.119,17.119,17.119,17.119,24
05/24/2023,17,17.06,16.97,17.06,597
05/25/2023,16.75,16.75,16.75,16.75,29
05/26/2023,16.8037,16.8037,16.8037,16.8037,25
05/30/2023,16.6861,16.6861,16.6861,16.6861,1
05/31/2023,17.08,17.08,16.6,16.8,347
06/01/2023,17.1658,17.1658,17.1658,17.1658,98
06/02/2023,17.42,17.42,17.42,17.42,50
06/05/2023,17.68,17.68,17.439,17.55,1451
06/06/2023,17.5099,17.61,17.5099,17.61,1629
06/07/2023,17.43,17.43,17.35,17.35,126
06/08/2023,17.4032,17.4032,17.4032,17.4032,0
06/09/2023,17.33,17.3663,17.33,17.3663,342
06/12/2023,17.75,17.75,17.659,17.69,1125
06/13/2023,17.8252,17.8252,17.8252,17.8252,143
06/14/2023,17.7935,17.7935,17.7935,17.7935,151
06/15/2023,17.8299,18.112,17.8299,18.112,1246
06/16/2023,17.9972,17.9972,17.9972,17.9972,162
06/20/2023,17.7501,18.0064,17.7501,18.0064,312
06/21/2023,17.92,17.92,17.7,17.7749,477
06/22/2023,17.91,17.91,17.875,17.9,1243
06/23/2023,17.7297,17.7297,17.7297,17.7297,1
06/26/2023,17.7,17.75,17.6369,17.6369,490
06/27/2023,17.488,17.62,17.488,17.62,258
06/28/2023,17.8114,17.8114,17.8114,17.8114,2
06/29/2023,17.97,17.97,17.8208,17.91,582
06/30/2023,18.219,18.219,18.0901,18.1,489
07/03/2023,17.8544,17.8544,17.8544,17.8544,67
07/05/2023,17.71,17.75,17.71,17.75,835
07/06/2023,17.5,17.52,17.4545,17.4545,795
07/07/2023,17.521,17.521,17.48,17.5,720
07/10/2023,17.99,17.99,17.99,17.99,164
07/11/2023,17.99,18.02,17.96,18.02,551
07/12/2023,18.272,18.33,18.272,18.3029,628
07/13/2023,18.419,18.4597,18.3899,18.4,341
07/14/2023,18.4853,18.4853,18.4853,18.4853,19
07/17/2023,18.49,18.51,18.4739,18.4739,477
07/18/2023,18.38,18.38,18.38,18.38,93
07/19/2023,18.22,18.29,18.22,18.29,474
07/20/2023,18.03,18.03,18.03,18.03,167
07/21/2023,18.1338,18.1338,18.1338,18.1338,0
07/24/2023,17.79,17.79,17.79,17.79,3
07/25/2023,17.9996,17.9996,17.9996,17.9996,105
07/26/2023,18.1968,18.1968,18.1443,18.1443,180
07/27/2023,18.003,18.003,18.003,18.003,2
07/28/2023,18.29,18.33,18.29,18.3092,512
07/31/2023,18.1653,18.1653,18.1653,18.1653,197
08/01/2023,17.969,17.9851,17.932,17.9851,726
08/02/2023,17.58,17.59,17.58,17.5844,6911
08/03/2023,17.31,17.3396,17.31,17.3396,238
08/04/2023,17.2995,17.2995,17.1304,17.1304,222
08/07/2023,17.1,17.1,17.06,17.06,340
08/08/2023,16.67,16.67,16.67,16.67,4
08/09/2023,16.4,16.4,16.4,16.4,51
08/10/2023,16.55,16.55,16.5,16.51,3754
08/11/2023,16.4272,16.4272,16.4272,16.4272,115
08/14/2023,16.18,16.515,16.18,16.515,312
08/15/2023,16.4319,16.5,16.4301,16.5,1107
08/16/2023,16.26,16.26,16.03,16.03,778
08/17/2023,16.32,16.32,15.74,15.8,603
08/18/2023,15.67,15.75,15.67,15.75,438
08/21/2023,15.73,15.73,15.73,15.73,179
08/22/2023,15.67,15.71,15.67,15.71,233
08/23/2023,15.7652,15.7652,15.7652,15.7652,57
08/24/2023,15.76,15.76,15.485,15.485,141
08/25/2023,15.56,15.63,15.56,15.61,772
08/28/2023,15.74,15.74,15.6,15.6,120
08/29/2023,15.7101,16.09,15.7101,16.09,451
08/30/2023,16.315,16.315,16.315,16.315,336
08/31/2023,16.41,16.42,16.1645,16.1645,1668
09/01/2023,16.39,16.39,16.39,16.39,48
09/05/2023,15.96,15.96,15.96,15.96,45
09/06/2023,15.95,16.025,15.95,16.025,111
09/07/2023,15.88,15.88,15.69,15.69,174
09/08/2023,15.55,15.55,15.37,15.37,839
09/11/2023,15.52,15.63,15.52,15.63,437
09/12/2023,15.34,15.34,15.34,15.34,105
09/13/2023,15.34,15.34,15.335,15.335,283
09/14/2023,15.19,15.19,15.19,15.19,62
09/15/2023,14.99,14.99,14.9,14.9,506
09/18/2023,14.8987,14.8987,14.775,14.775,359
09/19/2023,14.68,14.68,14.68,14.68,1
09/20/2023,14.6,14.6,14.45,14.45,500
09/21/2023,13.975,13.975,13.975,13.975,107
09/22/2023,13.79,13.79,13.79,13.79,25
09/25/2023,13.57,13.88,13.57,13.75,4298
09/26/2023,13.8249,13.8249,13.8249,13.8249,7
09/27/2023,13.9899,14.035,13.9899,14.035,223
09/28/2023,14.25,14.25,14.19,14.19,624
09/29/2023,14.1801,14.235,14.08,14.08,2000
10/02/2023,13.88,13.98,13.88,13.98,602
10/03/2023,13.82,13.84,13.73,13.73,289
10/04/2023,13.58,13.735,13.58,13.735,270
10/05/2023,13.4416,13.635,13.44,13.635,4627
10/06/2023,13.82,13.82,13.725,13.725,245
10/09/2023,13.75,13.75,13.75,13.75,4
10/10/2023,13.94,13.9954,13.94,13.9954,494
10/11/2023,13.6499,13.6499,13.586,13.586,651
10/12/2023,13.17,13.17,13,13,437
10/13/2023,13.117,13.17,13.117,13.125,960
10/16/2023,13.28,13.28,13.28,13.28,62
10/17/2023,13.4218,13.43,13.4218,13.43,235
10/18/2023,13.17,13.17,13.17,13.17,228
10/19/2023,13.1,13.1,13.1,13.1,44
10/20/2023,13.02,13.09,13.02,13.09,782
10/23/2023,12.99,12.99,12.99,12.99,22
10/24/2023,13.02,13.02,13.02,13.02,18
10/25/2023,12.655,12.68,12.655,12.68,212
10/26/2023,12.2,12.2,12.2,12.2,4
10/27/2023,12.24,12.24,12.23,12.23,553
10/30/2023,11.98,12.11,11.98,12.11,420
10/31/2023,12.2704,12.29,12.2704,12.29,400
11/01/2023,12.42,12.42,12.42,12.42,1
11/02/2023,12.62,12.71,12.62,12.71,986
11/03/2023,12.73,13.34,12.73,13.255,1100
11/06/2023,13.1,13.1,13.07,13.07,320
11/07/2023,13.27,13.27,13.17,13.17,1040
11/08/2023,12.85,12.85,12.85,12.85,100
11/09/2023,12.46,12.46,12.39,12.39,119
11/10/2023,12.31,12.535,12.31,12.535,4044
11/13/2023,12.7,12.7,12.7,12.7,40
11/14/2023,13.14,13.28,13.12,13.28,2128
11/15/2023,13.42,13.42,13.42,13.42,18
11/16/2023,13.4644,13.4644,13.4644,13.4644,21
11/17/2023,13.5301,13.585,13.5301,13.585,201
11/20/2023,13.7917,13.84,13.7917,13.84,322
11/21/2023,13.82,13.82,13.82,13.82,59
11/22/2023,13.935,13.935,13.935,13.935,1
11/24/2023,13.69,14,13.69,14,480
11/27/2023,13.995,13.995,13.995,13.995,25
11/28/2023,13.92,13.93,13.92,13.93,1438
11/29/2023,13.84,14.12,13.84,14.05,332675
11/30/2023,14.1121,14.1121,14.0599,14.0599,572
12/01/2023,14.4035,14.4035,14.4035,14.4035,20
12/04/2023,14.41,14.475,14.385,14.475,410
12/05/2023,14.25,14.29,14.2101,14.29,505
12/06/2023,14.475,14.475,14.32,14.32,300
12/07/2023,14.2401,14.415,14.2401,14.415,200
12/08/2023,14.4799,14.4899,14.4038,14.4038,1474
12/11/2023,14.4626,14.4626,14.46,14.46,102
12/12/2023,14.49,14.55,14.49,14.55,434
12/13/2023,15.1259,15.1259,15.1259,15.1259,100
12/14/2023,15.745,15.75,15.5189,15.54,656
12/15/2023,15.44,15.44,15.25,15.25,861
12/18/2023,15.3623,15.3623,15.3623,15.3623,1
12/19/2023,15.58,15.755,15.58,15.755,475
12/20/2023,15.3491,15.3491,15.3491,15.3491,102
12/21/2023,15.86,15.86,15.86,15.86,75
12/22/2023,15.885,15.924,15.8601,15.924,1136
12/26/2023,15.95,16.085,15.95,16.085,1584
12/27/2023,16.082,16.082,16,16.0663,1145
12/28/2023,16.12,16.12,16.1173,16.1173,331
12/29/2023,16.0611,16.0611,15.9357,15.9357,1197
01/02/2024,15.8149,15.88,15.58,15.58,1481
01/03/2024,15.18,15.29,15.11,15.25,330806
01/04/2024,15.19,15.32,15.18,15.265,692
01/05/2024,15.3986,15.4012,15.34,15.365,1735
01/08/2024,15.76,15.7816,15.76,15.7816,510
01/09/2024,15.92,16.33,15.9072,16.33,2285
01/10/2024,16.26,16.26,15.8,15.87,3171
01/11/2024,15.8475,15.96,15.8475,15.9544,2123
01/12/2024,15.87,15.92,15.8217,15.8217,3384
01/16/2024,15.63,15.675,15.63,15.675,188
01/17/2024,15.56,15.56,15.56,15.56,16
01/18/2024,15.58,15.765,15.57,15.765,2418
01/19/2024,15.735,15.8553,15.735,15.8553,4102
01/22/2024,16.3,16.3,16.0901,16.0901,1189
01/23/2024,16.36,16.36,15.965,15.965,375
01/24/2024,15.82,15.82,15.8158,15.8158,121
01/25/2024,15.91,15.91,15.75,15.81,1563
01/26/2024,16.018,16.018,15.895,15.895,578
01/29/2024,16.21,16.21,16.1794,16.1794,277
01/30/2024,15.9302,15.9302,15.91,15.91,504
01/31/2024,15.99,16,15.7509,15.7509,554
02/01/2024,15.94,15.94,15.9191,15.9191,861
02/02/2024,15.7961,15.9029,15.7961,15.9029,893
02/05/2024,15.7777,15.7777,15.7777,15.7777,38
02/06/2024,15.91,16.2,15.91,16.2,680
02/07/2024,16.1425,16.15,16.105,16.105,801
02/08/2024,16.1372,16.18,16.12,16.18,2361
02/09/2024,16.28,16.28,16.11,16.11,2165
02/12/2024,16.13,16.22,16.1,16.19,1985
02/13/2024,15.94,15.94,15.7534,15.7534,2740
02/14/2024,16.046,16.1013,16.046,16.1013,260
02/15/2024,16.2471,16.31,16.2366,16.2366,1381
02/16/2024,16.26,16.26,16.16,16.16,241
02/20/2024,16.11,16.14,16.0966,16.0966,843
02/21/2024,15.947,15.947,15.947,15.947,84
02/22/2024,16.18,16.22,16.145,16.145,758
02/23/2024,15.995,15.995,15.995,15.995,155
02/26/2024,16.13,16.13,16.0066,16.0066,318
02/27/2024,16.11,16.155,16.11,16.155,200
02/28/2024,15.8801,15.921,15.8501,15.895,492
02/29/2024,15.9782,15.9782,15.9782,15.9782,127
03/01/2024,15.89,16.31,15.89,16.31,2769
03/04/2024,16.305,16.305,16.305,16.305,122
03/05/2024,15.985,15.985,15.985,15.985,1
03/06/2024,16.215,16.265,16.17,16.265,536
03/07/2024,16.55,16.71,16.55,16.665,3018
03/08/2024,16.85,16.85,16.625,16.625,959
03/11/2024,16.62,16.62,16.44,16.44,1330
03/12/2024,16.6182,16.66,16.61,16.66,807
03/13/2024,16.635,16.6419,16.475,16.475,699
03/14/2024,16.205,16.205,16.205,16.205,51
03/15/2024,16.2,16.2,16.1953,16.1953,260
03/18/2024,16.35,16.38,16.35,16.38,110
03/19/2024,16.301,16.52,16.3,16.49,939
03/20/2024,16.496,16.496,16.496,16.496,12
03/21/2024,16.63,16.63,16.63,16.63,9
03/22/2024,16.48,16.5,16.4189,16.4189,661
03/25/2024,16.52,16.5295,16.45,16.45,500
03/26/2024,16.53,16.69,16.53,16.5801,28400
03/27/2024,16.71,16.88,16.71,16.88,4245
03/28/2024,16.979,16.99,16.97,16.97,556
04/01/2024,16.66,16.7,16.5982,16.635,393
04/02/2024,16.27,16.32,16.2619,16.2619,455
04/03/2024,16.38,16.38,16.31,16.31,100
04/04/2024,16.17,16.17,16.1285,16.1285,114
04/05/2024,16.3924,16.44,16.38,16.38,203
04/08/2024,16.3,16.57,16.3,16.505,879
04/09/2024,16.61,16.9,16.61,16.8186,323
04/10/2024,16.6,16.68,16.54,16.6397,759
04/11/2024,16.37,16.63,16.37,16.52,532
04/12/2024,16.11,16.25,16.11,16.1835,400
04/15/2024,15.89,15.89,15.8369,15.8369,100
04/16/2024,15.84,15.84,15.7176,15.7176,256
04/17/2024,15.59,15.59,15.5365,15.5365,100
04/18/2024,15.535,15.535,15.5,15.5,128
04/19/2024,15.26,15.345,15.26,15.345,121
04/22/2024,15.52,15.52,15.52,15.52,0
04/23/2024,15.94,15.97,15.7907,15.97,1101
04/24/2024,15.924,15.924,15.894,15.8952,898
04/25/2024,15.76,15.76,15.76,15.76,10
04/26/2024,15.8449,15.85,15.8449,15.85,319
04/29/2024,16.11,16.11,16.11,16.11,342
04/30/2024,15.96,15.96,15.96,15.96,51
05/01/2024,15.89,15.975,15.89,15.975,952
05/02/2024,16.0331,16.0331,16.0331,16.0331,0
05/03/2024,16.31,16.32,16.225,16.225,1182
05/06/2024,16.3889,16.3889,16.2208,16.2917,1183
05/07/2024,16.3601,16.4064,16.3601,16.3642,314
05/08/2024,15.92,15.92,15.92,15.92,1
05/09/2024,16.23,16.23,16.23,16.23,160
05/10/2024,16.079,16.079,16.079,16.079,251
05/13/2024,16.1188,16.17,16.09,16.17,1115
05/14/2024,16.32,16.38,16.0712,16.23,2125
05/15/2024,16.3615,16.525,16.3615,16.525,314
05/16/2024,16.5134,16.5134,16.5134,16.5134,1
05/17/2024,16.39,16.45,16.39,16.45,101
05/20/2024,16.4,16.41,16.3901,16.41,314
05/21/2024,16.52,16.52,16.52,16.52,80
05/22/2024,16.285,16.285,16.285,16.285,1
05/23/2024,16,16,15.9631,15.9631,172
05/24/2024,16.065,16.135,16.065,16.135,128
05/28/2024,16.05,16.05,16.05,16.05,0
05/29/2024,15.8766,15.8766,15.8766,15.8766,0
05/30/2024,15.83,15.83,15.83,15.83,0
05/31/2024,15.795,15.795,15.6766,15.6766,1016
06/03/2024,15.57,15.57,15.57,15.57,117
06/04/2024,15.64,15.6671,15.64,15.6671,116
06/05/2024,16.05,16.05,16.04,16.04,264
06/06/2024,16.18,16.18,16.18,16.18,12
06/07/2024,15.97,15.97,15.97,15.97,64
06/10/2024,16.0256,16.0256,16.0256,16.0256,70
06/11/2024,16.06,16.07,16.015,16.015,1517
06/12/2024,16.36,16.36,16.14,16.14,207
06/13/2024,16.07,16.07,16.045,16.045,202
06/14/2024,15.94,15.94,15.94,15.94,102
06/17/2024,15.8607,15.8607,15.8607,15.8607,1
06/18/2024,16.02,16.02,15.8661,15.8661,200
06/20/2024,15.7401,15.81,15.71,15.78,3142
06/21/2024,15.7763,15.7763,15.7763,15.7763,11
06/24/2024,15.5196,15.5196,15.43,15.43,138
06/25/2024,15.51,15.51,15.4977,15.4977,266
06/26/2024,15.57,15.57,15.57,15.57,55
06/27/2024,15.665,15.665,15.665,15.665,0
06/28/2024,15.5407,15.5407,15.535,15.535,1749
07/01/2024,15.3361,15.3361,15.3361,15.3361,7
07/02/2024,15.39,15.39,15.39,15.39,1
07/03/2024,15.3522,15.3522,15.3522,15.3522,4
07/05/2024,15.35,15.63,15.35,15.63,714
07/08/2024,15.5,15.5,15.4863,15.4863,226
07/09/2024,15.4,15.45,15.29,15.45,3295
07/10/2024,15.49,15.49,15.49,15.49,3
07/11/2024,15.88,15.88,15.865,15.865,1164
07/12/2024,15.96,16.01,15.96,16.01,123
07/15/2024,15.93,15.93,15.93,15.93,177
07/16/2024,16.1,16.465,16.1,16.465,352
07/17/2024,16.46,16.46,16.28,16.28,367
07/18/2024,15.7095,15.7095,15.7095,15.7095,62
07/19/2024,15.845,15.885,15.845,15.885,159
07/22/2024,16.22,16.26,16.21,16.26,308
07/23/2024,16.3258,16.35,16.285,16.285,800
07/24/2024,16.46,16.46,16.2044,16.21,529
07/25/2024,15.9624,15.9624,15.9624,15.9624,2
07/26/2024,15.37,15.37,15.37,15.37,161
07/29/2024,15.38,15.5796,15.38,15.5796,1264
07/30/2024,15.7254,15.7254,15.7254,15.7254,106
07/31/2024,15.73,15.78,15.73,15.78,100
08/01/2024,15.82,15.8648,15.82,15.8648,112
08/02/2024,15.475,15.6609,15.475,15.6609,305
08/05/2024,15.27,15.36,15.23,15.36,935
08/06/2024,15.74,15.76,15.56,15.56,2466
08/07/2024,15.81,15.81,15.384,15.384,374
08/08/2024,15.851,15.851,15.851,15.851,11
08/09/2024,15.95,15.97,15.925,15.925,334
08/12/2024,16.18,16.18,15.92,15.94,818
08/13/2024,16.1098,16.15,16.1098,16.15,423
08/14/2024,16.07,16.07,15.9786,15.9786,302
08/15/2024,16.39,16.39,16.33,16.3315,4238
08/16/2024,16.3697,16.45,16.3697,16.4084,1263
08/19/2024,16.5924,16.5924,16.5924,16.5924,34
08/20/2024,16.3526,16.46,16.29,16.29,684
08/21/2024,16.405,16.515,16.405,16.515,749
08/22/2024,16.31,16.445,16.31,16.34,588
08/23/2024,16.78,16.78,16.5585,16.65,469
08/26/2024,16.49,16.49,16.4225,16.4225,371
08/27/2024,16.6169,16.6169,16.6169,16.6169,47
08/28/2024,16.62,16.62,16.62,16.62,62
08/29/2024,16.805,16.805,16.7487,16.7487,149
08/30/2024,16.775,16.775,16.775,16.775,25
09/03/2024,16.63,16.63,16.57,16.6,479
09/04/2024,16.6,16.6,16.46,16.46,2248
09/05/2024,16.5197,16.5197,16.5197,16.5197,41
09/06/2024,16.315,16.315,16.315,16.315,177
09/09/2024,16.5586,16.5586,16.5307,16.5307,612
09/10/2024,16.6135,16.6135,16.6135,16.6135,102
09/11/2024,16.52,16.8283,16.52,16.8283,101
09/12/2024,16.94,16.94,16.9347,16.9347,880
09/13/2024,17.0897,17.0897,17.0897,17.0897,1
09/16/2024,17.22,17.22,17.22,17.22,101
09/17/2024,17.11,17.11,17.11,17.11,137
09/18/2024,17.1,17.1,17.1,17.1,156
09/19/2024,17.31,17.35,17.3049,17.3049,444
09/20/2024,17.19,17.19,17.19,17.19,7
09/23/2024,17.07,17.07,17.07,17.07,8
09/24/2024,16.965,16.965,16.965,16.965,10
09/25/2024,16.73,16.73,16.73,16.73,0
09/26/2024,16.88,16.88,16.869,16.869,440
09/27/2024,16.914,16.914,16.85,16.885,558
09/30/2024,17.0325,17.0325,17.0325,17.0325,25
10/01/2024,16.7402,16.7402,16.7402,16.7402,18
10/02/2024,16.8099,16.8099,16.8099,16.8099,35
10/03/2024,16.515,16.515,16.515,16.515,2
10/04/2024,16.78,16.78,16.73,16.73,106
10/07/2024,16.55,16.55,16.55,16.55,0
10/08/2024,16.6631,16.6631,16.6631,16.6631,10
10/09/2024,16.6986,16.6986,16.6986,16.6986,104
10/10/2024,16.62,16.62,16.62,16.62,148
10/11/2024,16.6964,16.6964,16.6964,16.6964,2
10/14/2024,16.815,16.815,16.815,16.815,0
10/15/2024,16.735,16.735,16.735,16.735,13
10/16/2024,16.85,16.85,16.81,16.81,208
10/17/2024,16.6134,16.6134,16.6134,16.6134,6
10/18/2024,16.8517,16.9693,16.79,16.9693,781
10/21/2024,16.8,16.83,16.8,16.8292,1213
10/22/2024,16.89,16.89,16.85,16.85,455
10/23/2024,16.605,16.605,16.605,16.605,159
10/24/2024,16.64,16.64,16.5846,16.5846,240
10/25/2024,16.81,16.82,16.6113,16.6113,334
10/28/2024,16.95,16.95,16.7504,16.7504,371
10/29/2024,16.7066,16.7066,16.7066,16.7066,1
10/30/2024,16.75,16.75,16.75,16.75,9
10/31/2024,16.4188,16.4188,16.4188,16.4188,2
11/01/2024,16.61,16.68,16.61,16.68,1888
11/04/2024,16.81,16.81,16.77,16.77,162
11/05/2024,16.875,16.875,16.875,16.875,1
11/06/2024,17.59,17.59,16.97,16.99,356
11/07/2024,17.1181,17.1181,17.1181,17.1181,76
11/08/2024,17.49,17.49,17.49,17.49,20
11/11/2024,17.665,17.665,17.665,17.665,23
11/12/2024,17.5499,17.5559,17.5499,17.5559,111
11/13/2024,17.47,17.47,17.43,17.43,537
11/14/2024,17.29,17.29,17.06,17.06,233
11/15/2024,16.6092,16.6092,16.6092,16.6092,3
11/18/2024,16.8461,16.8461,16.7856,16.7856,697
11/19/2024,17.0128,17.0128,17.0128,17.0128,53
11/20/2024,17.05,17.13,17.05,17.13,407
11/21/2024,17.32,17.32,17.27,17.2877,458
11/22/2024,17.3399,17.3399,17.3399,17.3399,7
11/25/2024,18,18,18,18,74
11/26/2024,17.9166,17.9166,17.9166,17.9166,187
11/27/2024,18.115,18.115,18.0735,18.0735,225
11/29/2024,18.12,18.12,18.12,18.12,1
12/02/2024,18.13,18.19,18.1299,18.19,341
12/03/2024,18.12,18.12,18.0754,18.0754,234
12/04/2024,18.175,18.39,18.175,18.39,112
12/05/2024,18.48,18.48,17.96,17.96,359
12/06/2024,18.18,18.18,18.1,18.1,266
12/09/2024,18.26,18.26,18.1283,18.1283,119
12/10/2024,18.24,18.24,18.1097,18.1097,111
12/11/2024,18.0809,18.0809,18.0809,18.0809,105
12/12/2024,17.99,17.99,17.99,17.99,77
12/13/2024,17.74,17.74,17.7075,17.7075,158
12/16/2024,17.92,17.92,17.73,17.84,740
12/17/2024,17.7811,17.7811,17.72,17.72,198
12/18/2024,17.44,17.44,17.08,17.08,1544
12/19/2024,17.005,17.005,17.005,17.005,60
12/20/2024,17.405,17.405,17.405,17.405,31
12/23/2024,17.28,17.3331,17.28,17.3331,222
12/24/2024,17.251,17.4194,17.251,17.4194,2366
12/26/2024,17.43,17.54,17.43,17.54,362
12/27/2024,17.4,17.4,17.3276,17.3276,158
12/30/2024,17.0479,17.0479,17.0479,17.0479,152
12/31/2024,16.9766,16.9766,16.9766,16.9766,227
01/02/2025,17.0628,17.0628,17.0628,17.0628,13
01/03/2025,17.4723,17.4723,17.4723,17.4723,59
01/06/2025,17.7083,17.7083,17.7083,17.7083,3
01/07/2025,17.6808,17.7,17.6509,17.6509,306
01/08/2025,17.76,17.89,17.76,17.89,128
01/10/2025,17.5788,17.5788,17.5788,17.5788,213
01/13/2025,17.4675,17.4675,17.4675,17.4675,66
01/14/2025,17.32,17.32,17.32,17.32,65
01/15/2025,17.5342,17.5342,17.5342,17.5342,20
01/16/2025,17.65,17.6751,17.65,17.6751,146
01/17/2025,17.76,17.76,17.7089,17.7089,139
01/21/2025,18.26,18.295,18.26,18.295,275
01/22/2025,18.56,18.56,18.54,18.54,118
01/23/2025,18.425,18.425,18.425,18.425,24
01/24/2025,18.3954,18.3954,18.3954,18.3954,7
01/27/2025,18.31,18.31,18.31,18.31,66
01/28/2025,18.46,18.46,18.46,18.46,118
01/29/2025,18.346,18.346,18.346,18.346,52
01/30/2025,18.6652,18.6652,18.6652,18.6652,23
01/31/2025,18.52,18.52,18.52,18.52,135
02/03/2025,18.52,18.52,18.4392,18.4392,132
02/04/2025,18.42,18.4412,18.42,18.4412,547
02/05/2025,18.66,18.6845,18.66,18.6845,355
02/06/2025,18.62,18.62,18.39,18.455,35194
02/07/2025,18.69,18.69,18.438,18.49,2965
02/10/2025,18.52,18.55,18.5062,18.55,265
02/11/2025,18.1097,18.135,18.1097,18.135,162
02/12/2025,18.024,18.13,18.024,18.13,167
02/13/2025,18.3,18.46,18.28,18.46,1815
02/14/2025,18.52,18.52,18.52,18.52,22
02/18/2025,18.73,18.73,18.56,18.56,585
02/19/2025,18.7,18.8266,18.7,18.76,3116
02/20/2025,18.84,18.84,18.52,18.55,469
02/21/2025,18.23,18.23,17.76,17.76,1125
02/24/2025,18.06,18.0632,17.99,18.005,2020
02/25/2025,17.35,17.55,17.35,17.42,14021
02/26/2025,17.7404,17.7404,17.7404,17.7404,155
02/27/2025,17.53,17.53,17.2454,17.2454,271
02/28/2025,17.32,17.4493,17.19,17.4493,302
03/03/2025,17.69,17.69,17.09,17.09,1196
03/04/2025,16.43,17.05,16.43,16.84,1512
03/05/2025,16.93,16.93,16.93,16.93,15
03/06/2025,16.76,16.76,16.65,16.65,364
03/07/2025,16.64,16.64,16.64,16.64,102
03/10/2025,15.9332,15.9332,15.9332,15.9332,56
03/11/2025,15.9881,15.9881,15.9881,15.9881,19
03/12/2025,16.015,16.015,16.015,16.015,156
03/13/2025,15.6,15.6,15.6,15.6,94
03/14/2025,15.9645,15.9645,15.9645,15.9645,24
03/17/2025,16.0599,16.13,16.0599,16.13,408
03/18/2025,15.96,15.96,15.96,15.96,74
03/19/2025,16.19,16.19,16.19,16.19,12
03/20/2025,16.22,16.22,16.22,16.22,68
03/21/2025,16.265,16.265,16.265,16.265,20
03/24/2025,16.57,16.57,16.57,16.57,96
03/25/2025,16.5111,16.5111,16.5111,16.5111,76
03/26/2025,16.135,16.135,16.135,16.135,3
03/27/2025,16.09,16.09,16.09,16.09,38
03/28/2025,15.675,15.675,15.675,15.675,25
03/31/2025,15.64,15.64,15.64,15.64,113
04/01/2025,15.62,15.62,15.62,15.62,110
04/02/2025,15.81,15.81,15.81,15.81,17
04/03/2025,15.1,15.15,15.1,15.15,512
04/04/2025,14.48,14.48,14.4662,14.4662,2005
04/07/2025,13.87,14.7359,13.87,14.7359,428
04/08/2025,14.12,14.1573,14.12,14.1573,138
04/09/2025,15.32,15.54,15.32,15.54,1229
04/10/2025,14.7,14.7354,14.7,14.7354,144
04/11/2025,14.69,15.04,14.69,15.04,8723
04/14/2025,15.2648,15.2648,15.2648,15.2648,54
04/15/2025,15.2282,15.2282,15.2282,15.2282,59
04/16/2025,15.08,15.08,15.08,15.08,55
04/17/2025,14.93,14.93,14.93,14.93,177
04/21/2025,14.55,14.69,14.55,14.69,402
04/22/2025,14.81,14.925,14.8,14.925,2045
04/23/2025,15.36,15.36,15.23,15.23,1142
04/24/2025,15.42,15.8,15.42,15.8,2224
04/25/2025,15.83,15.83,15.76,15.76,134
04/28/2025,15.78,15.78,15.759,15.759,217
04/29/2025,15.95,15.95,15.95,15.95,3
04/30/2025,15.85,15.85,15.85,15.85,133
05/01/2025,15.8,15.8,15.8,15.8,53
05/02/2025,16.44,16.44,16.399,16.399,103
05/05/2025,16.32,16.39,16.32,16.36,2125
05/06/2025,16.2817,16.2817,16.2817,16.2817,4
05/07/2025,16.5233,16.5233,16.5233,16.5233,51
05/08/2025,16.76,16.76,16.76,16.76,48
05/09/2025,16.54,16.54,16.54,16.54,27
05/12/2025,16.9618,17.1,16.88,17.1,60709
05/13/2025,17.31,17.31,17.0943,17.0943,1659
05/14/2025,16.95,16.97,16.9,16.9,12915
05/15/2025,16.83,16.8782,16.83,16.8782,582
05/16/2025,17.0991,17.0991,17.0991,17.0991,1
05/19/2025,17.0299,17.09,17.0299,17.09,193
05/20/2025,17.09,17.09,17.07,17.07,549
05/21/2025,16.77,16.77,16.51,16.51,547
05/22/2025,16.37,16.37,16.37,16.37,107
05/23/2025,16.3703,16.3703,16.3703,16.3703,167
05/27/2025,16.72,16.8,16.72,16.8,1656
05/28/2025,16.72,16.765,16.7199,16.765,408
05/29/2025,17.03,17.03,17.03,17.03,4
05/30/2025,17.0678,17.0678,17.0678,17.0678,66
06/02/2025,16.9769,17.0283,16.9769,17.0283,392
06/03/2025,17.235,17.235,17.235,17.235,2
06/04/2025,17.3486,17.365,17.325,17.325,689
06/05/2025,17.42,17.4399,17.42,17.42,965
06/06/2025,17.5791,17.5791,17.535,17.535,333
06/09/2025,17.58,17.58,17.52,17.52,518
06/10/2025,17.56,17.65,17.56,17.65,342
06/11/2025,17.74,17.74,17.6,17.6,448
06/12/2025,17.43,17.43,17.43,17.43,7
06/13/2025,17.2,17.2,17.2,17.2,89
06/16/2025,17.4665,17.4665,17.4665,17.4665,71
06/17/2025,17.4,17.4,17.2689,17.2689,368
06/18/2025,17.3918,17.4,17.345,17.345,656
06/20/2025,17.4194,17.46,17.4194,17.46,238
06/23/2025,17.17,17.17,17.0965,17.14,632
06/24/2025,17.23,17.42,17.23,17.42,367
06/25/2025,17.3496,17.3496,17.3496,17.3496,101
06/26/2025,17.5518,17.5518,17.5518,17.5518,20
06/27/2025,17.69,17.6901,17.5899,17.6768,833
06/30/2025,17.76,17.8,17.76,17.8,891
07/01/2025,17.75,17.8,17.6,17.6,2973
07/02/2025,17.67,17.67,17.61,17.61,139
07/03/2025,17.66,17.69,17.65,17.67,1293
07/07/2025,17.4169,17.4389,17.396,17.396,525
07/08/2025,17.53,17.565,17.53,17.55,564
07/09/2025,17.71,17.71,17.71,17.71,136
07/10/2025,17.75,17.75,17.75,17.75,580
07/11/2025,17.36,17.4,17.3334,17.34,1877
07/14/2025,17.39,17.5,17.39,17.5,364
07/15/2025,17.4,17.4,17.1661,17.1661,102
07/16/2025,17.225,17.225,17.225,17.225,22
07/17/2025,17.1484,17.1484,17.1484,17.1484,195
07/18/2025,16.999,16.999,16.999,16.999,99
07/21/2025,17.0154,17.0302,16.8607,16.8607,299
07/22/2025,17.421,17.421,17.421,17.421,213
07/23/2025,17.73,17.765,17.695,17.765,670
07/24/2025,17.76,17.76,17.76,17.76,44
07/25/2025,17.8772,17.8772,17.8772,17.8772,15
07/28/2025,17.91,17.91,17.865,17.865,1176
07/29/2025,17.73,17.73,17.73,17.73,1
07/30/2025,17.7715,17.7715,17.7715,17.7715,157
07/31/2025,17.0525,17.0525,17.0525,17.0525,147
08/01/2025,17.04,17.06,17.02,17.0287,3013
08/04/2025,17.265,17.265,17.265,17.265,10
08/05/2025,17.0054,17.0054,16.9866,16.9866,622
08/06/2025,16.6,16.64,16.6,16.64,600
08/07/2025,16.76,16.76,16.76,16.76,376
08/08/2025,17.049,17.049,16.97,17.0281,304
08/11/2025,16.9691,16.9691,16.9491,16.9491,203
08/12/2025,17.1742,17.1742,17.1742,17.1742,188
08/13/2025,17.52,17.52,17.52,17.52,155
08/14/2025,17.376,17.376,17.376,17.376,2
08/15/2025,17.51,17.51,17.51,17.51,2
08/18/2025,17.58,17.58,17.49,17.5232,3662
08/19/2025,17.48,17.48,17.455,17.455,381
08/20/2025,17.385,17.52,17.385,17.52,279
08/21/2025,17.56,17.56,17.39,17.39,149
08/22/2025,17.85,17.85,17.85,17.85,12
08/25/2025,17.73,17.73,17.424,17.424,567
08/26/2025,17.495,17.5199,17.495,17.5176,374
08/27/2025,17.5472,17.5472,17.5472,17.5472,2
08/28/2025,17.32,17.3672,17.3,17.3672,11199
08/29/2025,17.36,17.3971,17.3,17.3971,27810
09/02/2025,17.3116,17.3116,17.2024,17.2302,839
09/03/2025,17.04,17.1903,17.04,17.1903,139
09/04/2025,17.0601,17.43,17.0601,17.43,305
09/05/2025,17.5,17.6299,17.5,17.6299,149
09/08/2025,17.65,17.7,17.65,17.7,179
09/09/2025,17.695,17.695,17.695,17.695,245
09/10/2025,17.235,17.235,17.235,17.235,69
09/11/2025,17.57,17.595,17.57,17.595,210
09/12/2025,17.36,17.37,17.36,17.37,397
09/15/2025,17.3409,17.3409,17.3409,17.3409,12
09/16/2025,17.22,17.3187,17.22,17.3187,1761
09/17/2025,17.487,17.487,17.2721,17.2721,1313
09/18/2025,17.648,17.648,17.648,17.648,32
09/19/2025,17.435,17.435,17.435,17.435,4
09/22/2025,17.4755,17.595,17.4755,17.595,170
09/23/2025,17.61,17.61,17.405,17.405,1685
09/24/2025,17.3,17.3,17.135,17.135,2808
09/25/2025,17.025,17.025,17.025,17.025,12
09/26/2025,17.13,17.16,17.13,17.16,416
09/29/2025,17.15,17.2485,17.15,17.215,307
09/30/2025,17.13,17.3957,17.13,17.3957,495
10/01/2025,17.48,17.48,17.48,17.48,8
10/02/2025,17.635,17.635,17.635,17.635,3
10/03/2025,17.81,17.81,17.81,17.81,26
10/06/2025,18.02,18.02,17.8475,17.8566,800
10/07/2025,17.79,17.795,17.79,17.795,291
10/08/2025,18.03,18.03,18.03,18.03,29
10/09/2025,17.89,17.89,17.89,17.89,54
10/10/2025,17.6,17.6,17.2816,17.2816,677
10/13/2025,17.58,17.58,17.475,17.475,128
10/14/2025,17.525,17.525,17.525,17.525,10
10/15/2025,17.73,17.73,17.73,17.73,33
10/16/2025,17.8693,17.8693,17.8693,17.8693,24
10/17/2025,17.6605,17.6605,17.6605,17.6605,124
10/20/2025,18.165,18.165,18.165,18.165,30
10/21/2025,18.2736,18.2736,18.2736,18.2736,13
10/22/2025,18.37,18.37,18.325,18.325,551
10/23/2025,18.57,18.57,18.57,18.57,3
10/24/2025,18.67,18.67,18.5766,18.5766,7434
10/27/2025,18.575,18.575,18.575,18.575,76
10/28/2025,18.3903,18.3903,18.3903,18.3903,28
10/29/2025,18.2238,18.2238,18.2238,18.2238,56
10/30/2025,18.32,18.67,18.3106,18.3106,2890
10/31/2025,18.38,18.4223,18.38,18.4223,326
11/03/2025,18.19,18.54,18.1899,18.54,562
11/04/2025,18.599,18.599,18.4575,18.4575,479
11/05/2025,18.5139,18.5139,18.5139,18.5139,1
11/06/2025,18.3086,18.3086,18.3086,18.3086,21
11/07/2025,18.4484,18.4484,18.4484,18.4484,26
11/10/2025,18.4625,18.65,18.4575,18.5857,4912
11/11/2025,18.8018,18.8018,18.8018,18.8018,103
11/12/2025,18.8997,18.925,18.835,18.835,4248
11/13/2025,18.82,18.82,18.5362,18.5362,2041
11/14/2025,18.46,18.49,18.394,18.394,1031
11/17/2025,18.4002,18.43,18.2029,18.2029,6158
11/18/2025,18.01,18.3222,18.01,18.3222,553
11/19/2025,18.56,18.6606,18.56,18.6606,1695
11/20/2025,18.6682,18.6682,18.6682,18.6682,51
11/21/2025,19.18,19.18,19.18,19.18,223
11/24/2025,19.39,19.64,19.39,19.6275,3396
11/25/2025,19.9799,19.98,19.8551,19.8551,4025
11/26/2025,19.81,19.86,19.81,19.86,565
11/28/2025,19.82,19.89,19.82,19.89,2558
12/01/2025,19.57,19.57,19.57,19.57,291
12/02/2025,19.58,19.6501,19.515,19.515,610
12/03/2025,19.61,19.6242,19.61,19.6242,374
12/04/2025,19.7735,19.7735,19.7735,19.7735,53
12/05/2025,19.641,19.641,19.641,19.641,1
12/08/2025,19.47,19.47,19.47,19.47,32
12/09/2025,19.3632,19.3632,19.3632,19.3632,2
12/10/2025,19.4447,19.4447,19.4447,19.4447,67
12/11/2025,19.4145,19.4145,19.4145,19.4145,38
12/12/2025,19.3081,19.36,19.275,19.275,1637
12/15/2025,19.293,19.293,19.2314,19.2314,136
12/16/2025,19.14,19.14,18.92,19.09,1428
12/17/2025,18.945,18.945,18.945,18.945,152
12/18/2025,18.925,18.925,18.925,18.925,32
12/19/2025,19.1191,19.1191,19.1191,19.1191,104
12/22/2025,19.39,19.395,19.39,19.395,308
12/23/2025,19.28,19.28,19.26,19.27,411
12/24/2025,19.225,19.2775,19.225,19.2775,141
12/26/2025,19.24,19.2701,19.24,19.2701,521
12/29/2025,19.405,19.405,19.16,19.16,518
12/30/2025,19.13,19.13,19.13,19.13,68
12/31/2025,19.08,19.08,18.9947,18.9947,1314
01/02/2026,18.97,18.97,18.97,18.97,145
01/05/2026,19.04,19.43,19.04,19.43,818
01/06/2026,19.95,20.1263,19.918,20.1,1584
01/07/2026,20.1708,20.1708,20.1708,20.1708,124
01/08/2026,20.3,20.3,20.04,20.04,2115
01/09/2026,19.9199,19.9199,19.8886,19.8886,5027
01/12/2026,19.66,19.755,19.6599,19.755,2847
01/13/2026,19.5797,19.5797,19.5797,19.5797,57
01/14/2026,19.5,19.525,19.4999,19.525,1402
01/15/2026,19.58,19.665,19.58,19.665,1213
01/16/2026,19.513,19.513,19.513,19.513,66
01/20/2026,19.5,19.5453,19.5,19.5453,1277
01/21/2026,19.67,19.74,19.5651,19.74,630
01/22/2026,19.815,19.815,19.815,19.815,128
01/23/2026,19.7,19.7,19.5602,19.5602,106
01/26/2026,19.68,19.7,19.6393,19.6393,1600
01/27/2026,19.69,19.69,19.486,19.486,1986
01/28/2026,19.31,19.31,19.31,19.31,14
01/29/2026,19.1554,19.1554,19.1554,19.1554,23
01/30/2026,19.1,19.1,18.893,18.97,3765
02/02/2026,18.905,18.93,18.905,18.905,304
02/03/2026,18.51,18.51,18.318,18.37,402
02/04/2026,18.09,18.1799,18.09,18.1212,529
02/05/2026,18.13,18.13,17.7325,17.7325,737
02/06/2026,17.875,17.875,17.875,17.875,72
02/09/2026,17.9639,17.9639,17.9639,17.9639,4
02/10/2026,17.8838,17.8838,17.8838,17.8838,117
02/11/2026,17.75,17.75,17.75,17.75,13
02/12/2026,17.1558,17.1558,17.1558,17.1558,22
02/13/2026,17.38,17.38,17.38,17.38,34
02/17/2026,17.39,17.6354,17.39,17.6354,2998
02/18/2026,17.9544,17.9544,17.9544,17.9544,12
02/24/2026,17.5591,17.5591,17.5591,17.5591,29
02/25/2026,17.59,17.725,17.59,17.7031,893
02/26/2026,17.7,18.0561,17.7,18.0561,204
02/27/2026,17.8001,17.9658,17.8,17.9658,323
03/02/2026,17.6702,17.86,17.6702,17.86,228
03/03/2026,17.77,17.77,17.77,17.77,259
03/04/2026,17.835,17.835,17.835,17.835,106.261
03/05/2026,17.5,17.6,17.5,17.6,186.687
03/06/2026,17.3,17.3,17.2641,17.2641,2139
03/09/2026,17.475,17.475,17.475,17.475,35
03/10/2026,17.1247,17.1247,17.1247,17.1247,112
03/11/2026,17.0668,17.0668,17.0668,17.0668,0
03/12/2026,16.525,16.525,16.4705,16.4705,194
03/13/2026,16.4291,16.4291,16.4291,16.4291,1
03/16/2026,16.7023,16.7023,16.7023,16.7023,33.11249
03/17/2026,16.985,16.985,16.955,16.955,108
03/18/2026,16.72,16.7351,16.72,16.7351,2280
03/19/2026,16.86,16.86,16.86,16.86,5
03/20/2026,16.59,16.59,16.59,16.59,57.256577
03/25/2026,16.545,16.545,16.545,16.545,2.06
03/26/2026,16.4488,16.4488,16.4488,16.4488,2
03/27/2026,15.8,15.8,15.735,15.735,792
