12/01/2022,143.51,144.8199,140.28,140.54,2956949
12/02/2022,139.39,141.88,137.71,138.97,3932546
12/05/2022,141.92,142.49,132.4039,134.14,3817532
12/06/2022,133.03,135.25,126.96,127.79,5031872
12/07/2022,128.13,129.73,125.19,126.16,4510323
12/08/2022,129.18,129.88,123.31,124.57,4767395
12/09/2022,125.11,126.36,121.41,121.67,4152439
12/12/2022,122.76,125.22,122.27,124.06,4307658
12/13/2022,127.85,128.99,126.31,127.46,4376139
12/14/2022,127.5,129.21,124.77,125.93,3721750
12/15/2022,123.59,126.7,123.59,126.63,3565671
12/16/2022,125,126.61,122.41,125.77,13516580
12/19/2022,126.84,127.845,124.48,125.53,2410370
12/20/2022,125.31,128.12,125,126.49,2381131
12/21/2022,129.41,130.44,127.31,130.01,2687616
12/22/2022,130.14,130.67,123.31,126.3,3012228
12/23/2022,127.48,130.71,127.48,130.61,1678396
12/27/2022,131.42,132.34,130.3,132.08,2258077
12/28/2022,131.51,131.83,126.86,127.4,2490276
12/29/2022,126.72,129.2,126.5025,128.63,1744672
12/30/2022,128.25,129.69,127.95,129.52,2179412
01/03/2023,128,129.27,122.89,124.45,2994930
01/04/2023,121.93,125.54,121.34,124.36,2469850
01/05/2023,124.15,125.74,123.83,124.38,3560171
01/06/2023,126.17,129.15,125.61,127.47,2595724
01/09/2023,129.63,130.2,127.0631,127.75,3160483
01/10/2023,128.61,128.69,126.09,127.61,2575387
01/11/2023,129.17,129.67,125.68,126.85,2771179
01/12/2023,127.91,132.1026,127.6,130.45,4005443
01/13/2023,129.87,130.2,127.925,129.46,2111417
01/17/2023,129.83,130.97,128.665,130.06,3127767
01/18/2023,131.41,133.82,128.3,128.79,3737444
01/19/2023,128.97,131.9114,127.63,131.29,2449558
01/20/2023,131.35,133.45,130.68,132.75,2477026
01/23/2023,133.5,135.03,133.26,134.18,2695188
01/24/2023,134,134.86,132.38,132.76,2313141
01/25/2023,132.09,132.8,130.7838,132.5,2576336
01/26/2023,134.4,136,132.68,135.93,2613868
01/27/2023,136,137.95,134.44,134.66,3035559
01/30/2023,133.18,133.52,131.42,132.1,2927128
01/31/2023,132,133.73,131.55,132.25,4041836
02/01/2023,131.23,131.74,125.39,127.29,4991831
02/02/2023,126.8,127.11,123.09,124.75,3928668
02/03/2023,125,127.82,124.37,124.62,4205834
02/06/2023,124.83,125.27,122.13,123.83,2486692
02/07/2023,124.51,127.97,123.19,127.78,2524804
02/08/2023,127.79,129.543,127.56,128.64,4107716
02/09/2023,128.69,129.01,126.78,127.16,2487251
02/10/2023,130,134.22,129.02,134.14,4041048
02/13/2023,133.16,134.73,131.24,133.28,2936968
02/14/2023,131.6,134.24,131.25,133.13,2190438
02/15/2023,131.27,131.72,126.51,128.53,4346285
02/16/2023,127.71,128.52,124.99,125.14,2877243
02/17/2023,122.2,122.62,117.39,118.42,6201928
02/21/2023,118.42,119.675,117.7201,119.23,4582099
02/22/2023,118.89,120.845,116.7901,117.57,3772405
02/23/2023,120.02,120.2,117.51,119.53,3846414
02/24/2023,114.81,115.912,111.78,114.26,8752072
02/27/2023,114.49,115.2,113.1,114.75,4772204
02/28/2023,115.82,115.93,112.67,113.02,4907099
03/01/2023,113.33,118.68,112.87,118.01,4942216
03/02/2023,117.54,121.72,117.52,120.8,5850996
03/03/2023,119.02,122,118.725,121.77,4824769
03/06/2023,121,121.52,118.915,120.91,3893171
03/07/2023,119.8,120.54,117.8126,118.26,3020739
03/08/2023,117.5,119.58,116.7,117.83,2807625
03/09/2023,118.26,119.52,114.37,115,4649291
03/10/2023,113.96,115.89,111.52,112.18,4313032
03/13/2023,109.33,112.31,106.83,109.1,4301631
03/14/2023,109.44,111.97,106.71,109.2,4556526
03/15/2023,104.17,105.8,100.185,101.48,6558545
03/16/2023,99.36,104.78,98.5217,104.48,6638655
03/17/2023,104.25,104.85,101.59,102.75,11147954
03/20/2023,102.91,106.41,102.91,105.45,3560703
03/21/2023,107.8,109.34,106.27,108.62,4177135
03/22/2023,108.87,109.27,105.615,105.73,3803802
03/23/2023,106.4,107.56,103.46,104.78,3868484
03/24/2023,101.91,106.12,101.56,105.49,4183183
03/27/2023,106.79,109.13,105.615,108.38,3745107
03/28/2023,108.06,110.845,108.06,110.41,3283011
03/29/2023,112.03,112.87,111.13,112.68,3949677
03/30/2023,113.75,113.79,112.6,113.54,4455740
03/31/2023,114,114.94,113.49,114.63,4940079
04/03/2023,120.67,122.2544,119.5001,121.41,5011797
04/04/2023,122.25,122.52,117.27,119.62,3631010
04/05/2023,120.02,120.61,117.81,120.37,3263406
04/06/2023,119.66,120.2703,118.9,119.37,2843209
04/10/2023,120.67,122.74,120.04,120.37,2975999
04/11/2023,121.95,122.61,120.57,121.68,2184228
04/12/2023,121.65,122.88,121.51,122.31,2805088
04/13/2023,121.73,122.5,120.895,121.29,2912886
04/14/2023,121.5,122.58,120.9,121.61,2442425
04/17/2023,121.49,121.97,120.62,120.78,3574448
04/18/2023,120.25,120.55,118.6,119,4416851
04/19/2023,117.57,118.9687,116.73,118.8,3047457
04/20/2023,117.92,118.32,116.37,118.26,2690066
04/21/2023,118.55,118.55,116.53,117.31,3149525
04/24/2023,117.48,119.7,117.18,119.18,1939603
04/25/2023,116.99,117.88,115.5601,116.67,1988978
04/26/2023,115.88,117.325,114.6,115.66,2212852
04/27/2023,115.65,116.57,114.33,115.84,2827895
04/28/2023,115.52,119.74,115.1,119.47,2715878
05/01/2023,117.85,119.63,117.56,118.64,1800766
05/02/2023,116.8,117.35,111.145,111.61,5640466
05/03/2023,109.33,113.26,109.0346,111.02,4982014
05/04/2023,111.49,113.23,110.42,111.31,4518081
05/05/2023,115.3,118.4,112.8919,114.17,6165526
05/08/2023,116.45,117.155,114.28,114.36,2967674
05/09/2023,113.31,115.2199,113.07,113.77,1782178
05/10/2023,114.29,114.82,111.67,112.16,2578649
05/11/2023,110.13,111.03,109.31,110.53,2320942
05/12/2023,111.48,111.9,109.37,110.42,1874094
05/15/2023,111.25,112.04,110,111.34,1640577
05/16/2023,110.63,111.42,107.47,107.63,2467016
05/17/2023,109.16,111.32,108.82,110.8,2587101
05/18/2023,110,112.1,108.76,112.02,2465093
05/19/2023,114.78,115.92,113.88,114.59,4657633
05/22/2023,114.27,114.78,112.865,113.55,3451487
05/23/2023,114.27,115.54,112.63,113.46,2338612
05/24/2023,114.1,114.69,112.42,113.29,2430968
05/25/2023,111.33,111.33,109.39,110.4,2747297
05/26/2023,111.85,112.02,109.92,110.12,2942824
05/30/2023,107.71,108.99,107.01,108.81,4330248
05/31/2023,107.73,108.572,106.81,107.29,7749662
06/01/2023,107.7,110.044,106.32,108.15,5367674
06/02/2023,110.79,112.68,109.98,111.92,2902251
06/05/2023,114.17,114.27,110.17,111.65,2822077
06/06/2023,109.98,112.9,109.83,112.81,2708873
06/07/2023,113.58,116.41,113.52,116.25,3483591
06/08/2023,116.23,116.61,113.555,116.15,5198923
06/09/2023,116.13,116.42,114.98,116.25,3732865
06/12/2023,114.23,115.91,113.1,113.92,3947552
06/13/2023,113.71,115.951,112.56,112.72,3891937
06/14/2023,113.79,114.275,109.91,110.67,4011866
06/15/2023,111.52,113.47,110.77,111.7,2887737
06/16/2023,112.96,114.2,111.72,113.41,6113588
06/20/2023,112.27,112.38,109.06,110.33,3179267
06/21/2023,110.2,112.38,110.01,110.87,2730724
06/22/2023,109.16,109.49,107.42,108.25,2858874
06/23/2023,107,107.9,106.34,106.82,8357185
06/26/2023,106.79,110.56,106.77,110,3189285
06/27/2023,109.78,110.03,108.8,108.98,3594544
06/28/2023,109.43,111.25,107.99,111.19,3130612
06/29/2023,111.99,113.31,111.27,113,3650473
06/30/2023,113.88,115.36,112.825,114.44,4116215
07/03/2023,114.6,115.22,113.6528,114.7,1287557
07/05/2023,115.27,115.43,113.775,114.29,3012822
07/06/2023,113.06,113.99,110.43,112.25,3763433
07/07/2023,111.86,117.67,111.605,116.2,4583087
07/10/2023,115.46,117.29,115.39,115.77,3095519
07/11/2023,116.49,119.89,116.3679,119.6,2965269
07/12/2023,120.5,121.83,119.75,121.71,3658550
07/13/2023,122.01,124.33,121.24,122.57,2846714
07/14/2023,121.16,121.16,117.75,118.93,2736597
07/17/2023,118.21,119.6727,118.19,118.68,2255806
07/18/2023,118.32,123.63,118.2,122.77,3133793
07/19/2023,122.8,124.68,121.89,122.44,2185017
07/20/2023,124.3,124.72,122.83,123.49,2629592
07/21/2023,124.02,124.68,123.24,124.61,2246764
07/24/2023,125,127.43,124.805,126.15,2598542
07/25/2023,126.18,128.69,125.63,128.5,2284128
07/26/2023,126.63,129.42,126.57,129.32,2879042
07/27/2023,130,130.45,128.03,128.76,3091027
07/28/2023,129.31,130.9,127.75,130.7,3131904
07/31/2023,131.57,132.97,131.2,132.53,2803960
08/01/2023,131.54,132.05,130.16,131.75,2588009
08/02/2023,130.75,131.82,128.68,130.04,3252217
08/03/2023,130.36,133.3,129.902,131.69,4302096
08/04/2023,135,135.92,129.16,129.8,5719696
08/07/2023,130.44,130.44,127.24,127.63,3865090
08/08/2023,125.53,128.64,124.76,128.4,2958988
08/09/2023,129.62,132.08,129.39,130.81,3389190
08/10/2023,131,132.36,129.76,131.05,2342950
08/11/2023,130.83,132.83,130.725,132.33,1845471
08/14/2023,132.07,132.15,130.4613,131.48,1439100
08/15/2023,130.76,130.913,128.52,129.14,1598210
08/16/2023,129.63,131.01,128.08,128.6,1819980
08/17/2023,130.76,131.4,129.47,129.73,1837479
08/18/2023,128.84,130.76,128.0968,130.63,2046540
08/21/2023,131.54,132.3869,129.63,130.37,1627486
08/22/2023,130.5,131.54,129.17,129.24,1892990
08/23/2023,127.96,128.93,126.72,128.89,1708167
08/24/2023,127.45,128.86,125.37,125.68,2811204
08/25/2023,126.41,127.62,124.95,127.08,2417450
08/28/2023,127.71,128.8855,126.64,127.42,1836129
08/29/2023,127.53,127.945,125.9394,127.85,2175095
08/30/2023,128.57,128.6705,127.46,127.77,1642095
08/31/2023,128.22,128.97,126.79,128.62,2757449
09/01/2023,130.69,131.765,130,130.98,2462066
09/05/2023,131.96,135.41,131.67,133.39,3737783
09/06/2023,133.24,134.44,132.03,133.12,2015554
09/07/2023,133.18,133.82,131.39,131.55,1588683
09/08/2023,132.68,133.74,132.12,132.73,2398264
09/11/2023,133.76,134.36,129.48,130.17,2831328
09/12/2023,131.47,134.22,131.415,134.09,2442358
09/13/2023,134.11,134.55,131.9204,132.91,1963404
09/14/2023,134.46,136.05,133.77,134.66,2370181
09/15/2023,133.51,134.6072,131.6,132.18,4880348
09/18/2023,133.72,133.84,131.15,131.88,1999027
09/19/2023,133.31,133.55,127.72,129,3671719
09/20/2023,128,129.51,125.27,125.5,3818849
09/21/2023,126.2,126.77,122.24,122.59,3614430
09/22/2023,123.47,123.87,121.515,122.62,3222742
09/25/2023,122.93,125.83,122.93,125.65,2710593
09/26/2023,124.42,127.61,124.168,126.88,3381979
09/27/2023,129.47,131.02,128.41,129.81,2734982
09/28/2023,129.32,131.32,128.87,129.47,2274358
09/29/2023,129.56,129.7,126.54,126.76,3374668
10/02/2023,127.09,127.3,122.76,123.66,2625095
10/03/2023,123.55,124.285,122.79,124.24,1917994
10/04/2023,122.25,122.52,118.25,119.36,2814302
10/05/2023,118.25,120.1,117.86,118.46,2526408
10/06/2023,119.22,122.07,118.03,120.68,3477860
10/09/2023,124.22,127.87,123.8,127.24,3720025
10/10/2023,127.02,128.12,126.09,126.71,2833719
10/11/2023,125.51,127.5,124.8,127.37,2447413
10/12/2023,128.93,129.63,127.73,128.96,3038990
10/13/2023,131.6,134.63,131.26,133.84,3576296
10/16/2023,134.71,134.76,132.51,134.03,1993560
10/17/2023,133.47,135.22,133.18,134.3,2669993
10/18/2023,135.34,136.28,134.74,135.76,2307800
10/19/2023,135,136.68,133.93,136.23,2421289
10/20/2023,136.02,136.79,132.94,133.23,3425345
10/23/2023,131.94,133.12,130.68,131.64,2281360
10/24/2023,131.62,131.81,129.62,129.94,1813966
10/25/2023,129.7,130.52,128.67,129.73,2421994
10/26/2023,128.15,128.6,126.42,127.94,2367498
10/27/2023,127.93,128.07,124.96,125.99,2779016
10/30/2023,126.34,127.09,123.96,125.45,2614646
10/31/2023,125.32,126.64,124.2543,126.25,2367412
11/01/2023,126.78,127.525,124.12,124.22,3394556
11/02/2023,123.8,128.67,123.22,128.65,4313633
11/03/2023,129.79,131.61,127.61,128.16,5531615
11/06/2023,129.28,129.53,125.1,126.42,4168337
11/07/2023,124,124.5,121.6,122.64,3582097
11/08/2023,121.71,122.7,120.85,121.21,3840576
11/09/2023,122.21,122.63,120.89,121.3,1826975
11/10/2023,122.48,123.29,121.65,122.7,1934596
11/13/2023,123,123.73,122.3975,123.06,2413693
11/14/2023,123.9,125.33,123.14,125.12,2556087
11/15/2023,124.91,125.66,123.015,123.07,3861968
11/16/2023,120.91,121.77,117.36,120.7,4075135
11/17/2023,121.99,124.57,121.49,124,3667551
11/20/2023,124.75,125.72,124.14,125.23,3133807
11/21/2023,124.29,124.64,123.14,124.25,2281159
11/22/2023,120.6,123.46,119.095,123.17,3369570
11/24/2023,122.96,124.17,122.57,123.5,1318147
11/27/2023,122.66,123.27,121.75,123,2384172
11/28/2023,123.39,124.52,122.69,123.64,3381045
11/29/2023,124.23,124.39,122.7,123.24,3000103
11/30/2023,124.54,125.9694,121.86,123.07,5597879
12/01/2023,122.7,125.63,122.45,123.6,2990905
12/04/2023,122.55,123.9,122,123,3000917
12/05/2023,123.18,123.5563,121.46,121.95,3478419
12/06/2023,120.75,122.09,118.68,119.75,4613870
12/07/2023,120.32,121.08,117.96,118.35,3524534
12/08/2023,119.32,120.53,118.56,118.96,3858359
12/11/2023,117.56,119.69,117.5,119.2,5004141
12/12/2023,117.73,118.585,116.78,117.67,3447879
12/13/2023,117.92,118.87,116.8,118.48,5765760
12/14/2023,117.87,121.26,117.79,120.6,4842581
12/15/2023,119.43,120.65,118.7948,120.11,7429081
12/18/2023,122.75,123.1,121.251,121.62,2875617
12/19/2023,121.85,122.97,120.864,122.53,3498875
12/20/2023,122.86,123.975,121.27,121.43,3671278
12/21/2023,121.66,121.7,119.77,121.08,3841692
12/22/2023,122.21,123.005,121.403,122.27,1742029
12/26/2023,123.34,124.81,122.92,124.3,1852159
12/27/2023,124,125.27,123.47,124.27,2568378
12/28/2023,123.12,124.06,121.29,121.33,2137211
12/29/2023,121.94,122.09,120.585,120.95,1756736
01/02/2024,121.81,123.2992,121.26,121.6,3023003
01/03/2024,121.63,125.44,121.23,124.98,2794135
01/04/2024,125.56,126.0726,120.84,121.02,2847481
01/05/2024,121.85,122.06,119.53,120.38,2157200
01/08/2024,118.17,118.17,116.06,117.77,4244560
01/09/2024,118.1,118.37,114.79,116.07,3043402
01/10/2024,116.05,116.08,114.17,114.99,3128922
01/11/2024,115.3,115.94,114.47,114.98,2133968
01/12/2024,117.14,117.78,115.32,116.05,3010827
01/16/2024,115.17,115.17,111.825,112.14,3420439
01/17/2024,110.5,111.76,109.89,110.63,6564751
01/18/2024,110.48,110.8,109.1283,110.09,6757307
01/19/2024,110,110.18,108.94,110.17,2838373
01/22/2024,109.6,110.94,109.04,110.64,2482856
01/23/2024,110.52,111.91,110.07,110.37,2367815
01/24/2024,111.1,112.67,110.5,112.09,3527905
01/25/2024,112.49,114.86,112,114.85,2962508
01/26/2024,114.96,115.58,113.17,115.54,2683840
01/29/2024,115.37,115.42,113.7626,114.96,2648511
01/30/2024,114.32,116.88,113.7784,116.78,2947447
01/31/2024,116.64,116.675,113.73,113.79,3281858
02/01/2024,114.2,115.0175,111.745,112.6,2569554
02/02/2024,112.66,113,110.38,110.85,2927413
02/05/2024,110.17,110.6061,108.94,109.65,2957160
02/06/2024,110,112.98,109.675,111.88,3506508
02/07/2024,111.92,113.23,111.12,112.52,2986437
02/08/2024,112.9,113.957,111.8044,113.06,3159700
02/09/2024,113.06,113.75,110.67,111.05,2607522
02/12/2024,111.68,113.13,111.19,112.85,3786870
02/13/2024,113,113.39,109.88,111.03,3933578
02/14/2024,111.83,112.58,110.2,111.01,2567982
02/15/2024,110.95,114.87,110.72,114.25,3082441
02/16/2024,114.79,115.25,113.44,113.56,4151067
02/20/2024,113.86,114.29,112.78,113.13,3674656
02/21/2024,114.3,117.09,113.89,116.36,3111877
02/22/2024,115.68,117.07,115.26,116.4,4753383
02/23/2024,109.86,112.88,109.06,111.86,6200636
02/26/2024,111.53,113.19,111.13,112.05,4035303
02/27/2024,113,114.17,112.11,113.94,4337085
02/28/2024,113.99,115.29,112.86,114.17,3162450
02/29/2024,114.76,115.39,113.83,114.46,4341394
03/01/2024,115.7,116.73,115.29,116.1,2998396
03/04/2024,117.63,118.15,115.74,115.83,5192406
03/05/2024,115.71,117.8761,115.4,116.2,4265052
03/06/2024,117.15,117.38,115.57,116.49,3762944
03/07/2024,116.79,118.78,116.7425,117.85,3482085
03/08/2024,117.49,118.89,117.12,118.72,3141485
03/11/2024,119.22,121.14,118.46,120.82,3784254
03/12/2024,120.82,121.885,120.48,120.84,4069326
03/13/2024,122.44,123.56,121.93,122.57,2941821
03/14/2024,123.26,123.94,122.54,123.79,2970177
03/15/2024,123.29,124.91,122.74,122.79,16696741
03/18/2024,123.32,123.705,121.84,123.57,2269862
03/19/2024,123.52,125.155,123.22,124.64,3304075
03/20/2024,124.33,125.93,124,125.7,3139454
03/21/2024,125.9,126.28,125.075,126.08,2675058
03/22/2024,126.15,126.42,124.66,124.84,3152678
03/25/2024,125.39,127.44,125.17,127.25,3245977
03/26/2024,127.5,127.73,125.22,125.78,2957064
03/27/2024,125.37,126.8,124.77,126.39,2197305
03/28/2024,127.85,128.47,126.9,127.84,3310524
04/01/2024,128.81,130.14,127.44,129.76,2800574
04/02/2024,131,132.26,129.78,132.24,3598834
04/03/2024,133,133.9,132.29,133.78,3485913
04/04/2024,133.93,134.52,133.2633,134.03,3354518
04/05/2024,134.77,136.505,134.255,135.94,3445239
04/08/2024,136.06,136.675,134.95,135.45,3837813
04/09/2024,136.58,137.215,135.29,137.06,2807577
04/10/2024,136.44,138.41,136.17,137.95,3397532
04/11/2024,137.35,137.72,135.045,137.27,3430222
04/12/2024,138.5,139.67,134.68,135.29,2656163
04/15/2024,133.97,135.17,132.3,132.39,2921352
04/16/2024,132.39,133.03,130.63,132.96,3448617
04/17/2024,132.75,134.44,131.2001,132.4,2581507
04/18/2024,133.03,133.134,130.99,131.76,2001781
04/19/2024,131.79,134.34,131.735,133.17,2441052
04/22/2024,132.89,135.11,131.67,133.9,2463660
04/23/2024,134.02,135.2889,132.28,134.8,2001282
04/24/2024,134.26,135.69,133.255,135.6,1908231
04/25/2024,135.71,136.325,133.74,135.36,3384701
04/26/2024,135.12,136.3899,134.36,135.7,1812746
04/29/2024,135.16,136.5,135.14,136.25,2741020
04/30/2024,135.69,135.99,132.04,132.13,3463262
05/01/2024,131.04,131.78,128.87,129.95,3376478
05/02/2024,131.33,132.32,130.32,131.8,4125086
05/03/2024,130.92,132.44,128.245,130.02,5626375
05/06/2024,130.68,132.14,130.24,130.48,3656062
05/07/2024,130.6,131.51,130.18,130.26,3143743
05/08/2024,129.27,131.16,128.9335,129.83,2758322
05/09/2024,130.18,131.06,129.74,130.56,3646179
05/10/2024,130.81,131.57,129.79,130.1,2785559
05/13/2024,130.47,130.65,129.34,129.4,2917714
05/14/2024,129.43,130.18,128.7,129.43,2318445
05/15/2024,129,129.43,126.54,129.09,2501674
05/16/2024,128.78,129.63,127.89,127.92,2568678
05/17/2024,128.78,130.26,128.105,129.94,2309413
05/20/2024,130.23,130.58,129.15,129.86,1896255
05/21/2024,129.44,130.35,128.73,128.9,2152108
05/22/2024,128.45,128.45,125.62,126.05,3333559
05/23/2024,126.66,127.3,123.875,124.03,3329370
05/24/2024,124.63,125.58,122.98,123.27,3687852
05/28/2024,123.9,126.1,123.66,125.85,3662921
05/29/2024,125.97,126,121.18,121.92,5015962
05/30/2024,121.92,123.2399,121.38,122.25,2598790
05/31/2024,122.54,124.74,122.54,124.55,3891547
06/03/2024,124.2,124.395,118.4,119.64,3127283
06/04/2024,118.45,120.04,117.4,119.8,4333108
06/05/2024,119.88,120.35,119,120.31,3167754
06/06/2024,120.3,121.29,119.6,121.21,3052647
06/07/2024,121,122.09,120.05,120.19,2097906
06/10/2024,120.6,122.27,119.745,121.59,1681989
06/11/2024,120.69,122.05,119.79,122.03,2024511
06/12/2024,123.1,123.23,120.15,120.93,2069519
06/13/2024,120.51,120.83,118.125,119.1,2226422
06/14/2024,119.71,119.71,117.17,118.24,2780379
06/17/2024,118.24,119.5898,117.24,119.08,2352074
06/18/2024,119.78,121.15,118.77,119.5,1955987
06/20/2024,119.76,122.079,119.255,121.99,2356476
06/21/2024,122.84,122.96,121.26,122.05,7399302
06/24/2024,122.62,125.93,122.5,125.3,2594332
06/25/2024,124.94,125.68,123.92,125.55,1783354
06/26/2024,126.02,126.15,123.87,124.58,2211303
06/27/2024,125.5,125.5,123.665,124.55,1662713
06/28/2024,125.59,126.07,124.8,125.87,3876634
07/01/2024,127.7,127.89,125.47,126.54,2439498
07/02/2024,127.8,128.85,126.08,126.65,2231349
07/03/2024,126.5,127.39,126.15,126.77,1784935
07/05/2024,126.55,127.09,124.45,124.94,3046563
07/08/2024,124.04,125.66,123.9133,125.63,2520792
07/09/2024,123.88,126.93,123.82,125.67,2828019
07/10/2024,125.64,126.34,124.94,126.22,1758167
07/11/2024,125.98,128.53,125.6,128.17,2364987
07/12/2024,129.35,129.47,127.75,128.95,1968666
07/15/2024,130.25,134.32,129.65,132.65,3489755
07/16/2024,132.34,133.0704,131.2,131.52,2859705
07/17/2024,130.72,133.11,130.71,132.38,2364364
07/18/2024,131.73,134.74,131.385,132.23,2115112
07/19/2024,132.4,132.43,128.6,129.25,3157252
07/22/2024,128.63,128.94,126.84,126.92,2021563
07/23/2024,125.89,126.175,124.12,124.9,3627118
07/24/2024,125.91,126.64,124.64,125.1,2060841
07/25/2024,125.46,128.06,125.3,127.04,2223544
07/26/2024,126.8,127.77,125.51,127.15,2119645
07/29/2024,127.5,127.98,123.865,125.18,2306290
07/30/2024,125.11,126.81,125.11,126.15,2085788
07/31/2024,128.15,128.57,126.46,126.8,3054994
08/01/2024,127.12,128.01,122.59,123.11,2969713
08/02/2024,124.68,126.04,119.9999,122.92,6629983
08/05/2024,120.59,124.449,119.78,123.12,4954855
08/06/2024,122.47,124.275,122.16,122.27,3760825
08/07/2024,124.11,125.38,122.93,123.12,2654110
08/08/2024,123.44,126.94,123.44,126.79,2618990
08/09/2024,126.8,127.155,125.3034,126.53,3023918
08/12/2024,127.2,128.83,126.93,128.77,2895653
08/13/2024,127.38,127.8,126,126.36,2914744
08/14/2024,126.61,127.1,125.88,126.54,1991878
08/15/2024,126.57,128.42,126.47,128.12,1994844
08/16/2024,127.61,128.43,127.31,128.06,2257033
08/19/2024,128.07,129.81,127.85,128.24,1959491
08/20/2024,128.29,128.56,124.65,125.25,2831835
08/21/2024,126.23,126.86,124.925,124.98,2626475
08/22/2024,125,126.43,124.95,125.22,2183635
08/23/2024,126.25,127.265,125.4993,126.9,1953142
08/26/2024,129.5,131.18,128.84,130.06,2250641
08/27/2024,130.49,130.85,128.335,128.56,2094106
08/28/2024,127.59,129.26,127.1687,128.72,1629725
08/29/2024,129.37,130.54,129.1,129.98,3104702
08/30/2024,128.43,129.31,127.6,128.82,2655730
09/03/2024,127.03,127.27,123.57,123.63,3757568
09/04/2024,123.99,125.32,122.4501,122.78,2626243
09/05/2024,123.67,123.805,121.03,121.55,3050411
09/06/2024,122,122.46,119.925,120.35,3100000
09/09/2024,120.86,121.57,120.48,120.5,4899072
09/10/2024,120.43,120.81,117.962,118.97,3868969
09/11/2024,118.585,118.95,115.78,117.9,3280702
09/12/2024,117.5,118.66,116.58,118.22,4649219
09/13/2024,118.61,120.05,118.5,119.37,4385132
09/16/2024,121.23,121.76,120.21,121.67,4435054
09/17/2024,121.59,123.33,121.42,123.19,3962887
09/18/2024,122.61,125.16,122.53,124.38,3925681
09/19/2024,126.67,126.82,124.755,125.2,4282540
09/20/2024,125.05,126.155,123.95,126.03,8363245
09/23/2024,125.71,128.46,125.25,127.73,3107979
09/24/2024,129.4,129.73,127.19,127.9,2038685
09/25/2024,127.47,127.98,124.46,124.56,2988335
09/26/2024,121.78,123,119.895,120.37,4803137
09/27/2024,121.2,122.66,120.76,122.44,3176329
09/30/2024,122.28,123.65,121.475,122.93,3447324
10/01/2024,120.81,127.25,120.55,126.96,3439272
10/02/2024,129.21,129.35,126.53,128.33,2543873
10/03/2024,128.66,131.045,127.57,130.79,2539187
10/04/2024,132,133.26,131.03,133.12,2671036
10/07/2024,133.25,135.5,133.12,134.24,2836206
10/08/2024,132.5,132.59,129.33,130.37,2438052
10/09/2024,130.38,131.35,129.43,130.96,2157661
10/10/2024,131.87,132.61,130.34,132.19,1598973
10/11/2024,131.68,133.575,131.56,132.45,1372190
10/14/2024,131.37,132.06,130.81,131.47,1671764
10/15/2024,127.93,128.845,126.78,127.28,2928608
10/16/2024,127.37,127.99,126.98,127.36,1903292
10/17/2024,126.84,127.585,126.19,127.04,2891386
10/18/2024,126.67,127,125.455,126.62,2684856
10/21/2024,127.85,128.11,125.57,125.71,2371471
10/22/2024,126.24,126.52,124.98,125.07,1665880
10/23/2024,124.9,125.155,123.73,124.73,1575687
10/24/2024,125.18,125.49,123.63,124.44,1879456
10/25/2024,125.28,125.735,122.58,123.17,2981982
10/28/2024,119.75,122.64,119.3646,122.07,2320027
10/29/2024,122.07,122.08,120.31,120.49,1650209
10/30/2024,121.47,121.47,120.35,120.52,2373198
10/31/2024,121.53,122.57,120.56,121.96,2900647
11/01/2024,122.84,122.9745,120.34,120.84,2075326
11/04/2024,122.03,123.45,121.51,122.93,1618846
11/05/2024,123.23,123.5404,121.51,122.11,3155289
11/06/2024,125.56,128.74,124.71,127.2,3431761
11/07/2024,127.2,127.6,124.87,126.46,2210304
11/08/2024,131.635,134.98,128.2,134.12,5265569
11/11/2024,133.48,135.09,132.39,133.1,2892866
11/12/2024,133.1,133.82,132.71,133.13,2465106
11/13/2024,134.04,134.755,132.06,134.35,3473839
11/14/2024,135,135.4,133.2551,135.19,2469299
11/15/2024,135.01,136.85,134.05,134.56,2204040
11/18/2024,136.32,137.21,135.11,136.54,2455126
11/19/2024,135.33,136.76,134.84,135.18,2468517
11/20/2024,134.68,136.46,134.655,136.23,1952200
11/21/2024,136.92,137.72,135.19,135.5,2810753
11/22/2024,135,136.84,134.84,136.35,2238586
11/25/2024,136.39,137.2,131.7,131.98,4738703
11/26/2024,132.29,133.08,131.105,132.54,3066236
11/27/2024,132.75,134.61,132.74,133.09,1896049
11/29/2024,133.5,134.67,132.53,133.26,1731560
12/02/2024,133.5,133.715,130.24,131.24,2466116
12/03/2024,132.38,132.69,130.22,131.8,2225728
12/04/2024,131.64,131.89,128.38,129.53,3140422
12/05/2024,129.88,131.85,129.6385,130.02,2570734
12/06/2024,129.11,129.74,126.31,127.81,2868113
12/09/2024,129.29,129.55,127.63,127.85,2914644
12/10/2024,128.78,129.36,126,126.61,3348389
12/11/2024,126.65,128.11,126.09,127.56,4267707
12/12/2024,127.45,127.58,126.325,126.57,2081026
12/13/2024,126.58,127.21,125.32,126.77,1819627
12/16/2024,126.2,126.88,124.19,124.62,2671420
12/17/2024,123.94,124.845,121.765,123.15,3725149
12/18/2024,123.15,123.78,119.54,119.63,4434976
12/19/2024,120.69,121.075,118.13,118.22,3467452
12/20/2024,117.62,119.92,117.51,119.04,7964974
12/23/2024,118.66,120.24,118.09,119.85,2471595
12/24/2024,120.16,120.98,119.1,120.83,1318678
12/26/2024,120.9,120.98,120.19,120.41,2077831
12/27/2024,120.1,121.72,119.84,120.4,2015028
12/30/2024,120.71,121.32,119.48,120.58,2953476
12/31/2024,120.89,122.82,120.55,122.58,3246811
01/02/2025,124,125.61,123.55,124.71,2877002
01/03/2025,125.62,126.9388,125.22,126.57,2926128
01/06/2025,127,128.51,126.085,126.39,2630239
01/07/2025,126.98,128.6,126.4293,127.56,2677455
01/08/2025,127.74,128.885,126.905,128.46,2930928
01/10/2025,131.28,134.84,130.05,131.41,4793171
01/13/2025,131.91,135.92,131.67,134.49,5435753
01/14/2025,133.72,135.975,133.7,135.77,3203066
01/15/2025,135.92,137.215,135.07,137.06,2459569
01/16/2025,136.28,138.18,136.2,138.05,2637467
01/17/2025,136.85,137.86,136.1,136.58,2742875
01/21/2025,134.93,136.44,134.21,136.04,3573365
01/22/2025,135.81,136.2,133.84,134.02,3295663
01/23/2025,134.83,135.56,133.19,133.98,2894174
01/24/2025,134.52,134.84,131.47,131.82,3062769
01/27/2025,132.03,134.69,130.87,131.96,3133918
01/28/2025,132.42,133.2,129.56,130.25,2161298
01/29/2025,129.91,130.785,129.38,130.23,1795855
01/30/2025,130.85,131.27,129.105,129.78,1787986
01/31/2025,129.53,129.69,125.25,125.79,3302787
02/03/2025,126.3,127.01,124.46,126.4,2783651
02/04/2025,125,129.32,124.63,128.12,2113268
02/05/2025,127.8,128.76,126.895,127.7,1855689
02/06/2025,128.33,128.74,125.27,126.68,2731160
02/07/2025,126.87,127.75,126.34,126.5,1718600
02/10/2025,127.44,130.82,126.61,130.56,2667079
02/11/2025,131.27,133.64,130.92,132.29,2332648
02/12/2025,132.08,133.7822,128.65,128.84,3020891
02/13/2025,128.7,129.13,127.5112,129.02,1846163
02/14/2025,129.42,131.94,129.23,129.31,2130544
02/18/2025,130.43,132.05,128.26,130.94,2285977
02/19/2025,132,134.88,131.78,134.53,2242824
02/20/2025,134.53,135.87,133.9145,135.67,2745221
02/21/2025,134.71,135.14,132.54,133.08,2626422
02/24/2025,133.15,133.91,132.32,133.63,2178673
02/25/2025,133.32,134.4899,130.9016,131.32,2314066
02/26/2025,131.06,131.71,128.6,129.84,2470148
02/27/2025,131.02,132.09,129.755,130.61,2664613
02/28/2025,128.1,128.82,124.36,126.94,6646729
03/03/2025,126.93,126.965,119.37,120.54,7339720
03/04/2025,119.14,123.87,117.725,122.11,6354314
03/05/2025,120,122.26,118.88,121.85,5164949
03/06/2025,122.21,123.5025,120.63,122.19,3859356
03/07/2025,122.99,125.68,122.68,125.26,4269707
03/10/2025,126.78,128.81,124.96,125.89,3021165
03/11/2025,126.94,127.43,124.28,124.49,4285668
03/12/2025,124.05,126,123.14,124.27,3347017
03/13/2025,123.13,124.575,120.0801,121.09,3429540
03/14/2025,121,124.17,120.25,123.92,3209007
03/17/2025,123.8,124.71,123.31,123.58,3548711
03/18/2025,124.705,124.75,122,122.57,2914037
03/19/2025,122.74,125.505,122.74,124.94,3370725
03/20/2025,123.95,125.49,123.0049,124.3,3985365
03/21/2025,123.54,125.17,122.99,125.17,9198889
03/24/2025,125.25,129.1925,124.955,128.27,3128316
03/25/2025,128.4,129.555,127.07,127.38,3049508
03/26/2025,128.75,130.52,128.3,129.18,2584367
03/27/2025,128.92,129.06,126.43,126.73,2367009
03/28/2025,126.54,126.95,125,126.59,2354274
03/31/2025,126.61,129.64,126.48,128.24,3149140
04/01/2025,127.76,129.5,127.31,129.3,1926719
04/02/2025,128.28,130.405,128.28,129.97,1827430
04/03/2025,122.74,125.29,119.47,119.89,5530585
04/04/2025,115.58,116.6125,109.195,110.55,8834855
04/07/2025,107.28,113.5652,105.27,109.03,8269748
04/08/2025,110.76,112.0099,103.46,104.96,5531837
04/09/2025,102.54,115.68,102.54,114.05,9991792
04/10/2025,110,111.84,102.52,104.61,8314469
04/11/2025,105.84,109.62,103.515,108.54,4992134
04/14/2025,111.16,111.5,106.123,107.64,4030261
04/15/2025,107.74,109.1,107.168,107.48,3192474
04/16/2025,107.15,110.16,106.6301,108.24,4270816
04/17/2025,109.68,112.68,108.81,110.5,5905456
04/21/2025,108.58,109.32,107.41,109.11,3001801
04/22/2025,110.85,112.46,110.2101,111.32,2947640
04/23/2025,112.5,113.67,110.025,111.57,3037950
04/24/2025,112.83,113.79,111.64,113.46,2075633
04/25/2025,112.29,113.53,111.8,113.07,2093425
04/28/2025,112.88,114.55,112.7,114.14,1908486
04/29/2025,113.19,114.04,112,112.93,2323709
04/30/2025,112,112,108.5418,110.33,5383379
05/01/2025,109.535,113.3,109.27,111.68,4603751
05/02/2025,111.12,112.14,108.01,110.86,6415038
05/05/2025,108.86,109.25,107.02,108.52,5226327
05/06/2025,109.49,110.2265,107.8925,108.72,4504985
05/07/2025,109.34,109.34,107.055,107.97,4013510
05/08/2025,109.04,112.12,108.61,109.71,6135469
05/09/2025,110.48,111.15,109.52,111.12,4080006
05/12/2025,116.05,117.17,113.96,114.06,3983571
05/13/2025,114.63,117.769,113.97,116.65,4113071
05/14/2025,115.28,116.2,114.6,115.59,3878579
05/15/2025,113.91,115.98,113.12,115.86,3243833
05/16/2025,116.51,116.71,114.87,115.5,3406061
05/19/2025,114.25,114.625,112.69,113.95,2864014
05/20/2025,114.07,114.32,112.43,112.58,2336476
05/21/2025,112.86,113.18,111.15,111.38,3198507
05/22/2025,110.41,111.44,108.65,110.79,3050877
05/23/2025,109.31,110.6,109.31,110.18,1993261
05/27/2025,110.61,111.4926,109.43,111.23,2475133
05/28/2025,112.7,112.7,110.07,110.45,2260894
05/29/2025,110.46,111.03,109.37,109.88,3421596
05/30/2025,108.5,109.51,107.46,108.57,5536320
06/02/2025,111.11,111.81,109.7,111.34,4151461
06/03/2025,111.36,113.89,110.1729,112.82,3279210
06/04/2025,112.96,114.53,110.77,110.77,3333941
06/05/2025,111.92,112.08,110.43,111.03,2697583
06/06/2025,112.69,114.7,112.69,114.05,3055903
06/09/2025,114.2,115.28,113.18,114.33,3647654
06/10/2025,116.34,119.52,116,117.88,4952225
06/11/2025,118.95,120.575,117.17,119.92,3893007
06/12/2025,119.26,120.76,118.46,120.59,3318656
06/13/2025,125.24,125.88,122.5,125.28,7915162
06/16/2025,123.39,124.8699,121.66,123.18,5142497
06/17/2025,124.585,125.96,123.64,124.64,4563620
06/18/2025,125,126.73,123.14,123.78,4553402
06/20/2025,123.99,125.96,123.8,125.32,11229382
06/23/2025,126.855,127.81,121.52,121.99,5079968
06/24/2025,120.88,122.2675,119.8,120.68,3981320
06/25/2025,120.24,121.18,119.27,119.82,2799001
06/26/2025,120,121.16,119.46,121.13,2705318
06/27/2025,121,121.135,119.89,120.8,4187904
06/30/2025,120,120.4,118.85,119.61,3491334
07/01/2025,119.97,121.6435,118.08,121.19,3680329
07/02/2025,123.2,123.255,120.67,122.88,3460765
07/03/2025,122.87,123.71,122,123.15,1437151
07/07/2025,122.18,122.68,118.07,119.61,3692389
07/08/2025,119.72,125.08,119.22,123.95,3753441
07/09/2025,122.98,123.94,121.52,121.89,2245706
07/10/2025,121.13,122.28,119.82,121.73,2703860
07/11/2025,121.86,123.57,121.1101,123.04,2215922
07/14/2025,122.61,123,121.165,122.6,3074527
07/15/2025,122.59,122.82,119.67,119.71,2993487
07/16/2025,119.71,120.085,117.7,118.8,3682495
07/17/2025,117.22,118.62,117.19,118.43,2795751
07/18/2025,118.99,119.682,117.43,117.68,5901955
07/21/2025,118.02,118.14,116.49,116.49,3248052
07/22/2025,116.71,118.41,116.34,117.93,2200012
07/23/2025,118.32,119.05,117.28,118.88,2798106
07/24/2025,118.78,119.7,118.07566,119.05,2452124
07/25/2025,119.06,119.33,117.86,118.39,1785464
07/28/2025,119.74,121.72,119.45,121.65,2794960
07/29/2025,122,123.22,120.86,123.15,2916207
07/30/2025,122.23,122.86,120.65,121.24,2691404
07/31/2025,120.29,122.64,119.76,120.02,2657427
08/01/2025,119.46,119.902,115.93,116.6,2689009
08/04/2025,115.93,117.57,115.8501,117.01,2300555
08/05/2025,117.22,118.07,116.3,117.78,3035320
08/06/2025,118.96,119.94,116.08,116.59,3050500
08/07/2025,117.16,119.21,115.74,115.97,4400422
08/08/2025,116.29,117.64,113.36,116.28,3969223
08/11/2025,116.9,117.855,115.05,116.84,3043244
08/12/2025,117.07,119.93,116.67,118.01,2902200
08/13/2025,118,119.47,117.4801,119.47,2951171
08/14/2025,118.78,120.03,118.24,119.79,2246727
08/15/2025,119.82,120.77,118.94,118.99,2944367
08/18/2025,118.36,118.525,117.24,117.73,2743228
08/19/2025,117.04,118.55,116.565,117.32,2425702
08/20/2025,117.74,118.81,117.03,118.36,2527511
08/21/2025,118.13,118.819,117.35,118.51,1853000
08/22/2025,119.04,121.41,118.8,121.11,2245953
08/25/2025,120.6,121.625,119.7,121.43,2092757
08/26/2025,120.59,121.74,120.27,121.3,3191290
08/27/2025,120.89,123.48,120.89,122.88,2195301
08/28/2025,122.97,124.55,122.04,124.34,1937873
08/29/2025,124.27,125.64,124.045,124.82,1738341
09/02/2025,124.48,126.115,123.54,126.1,2224879
09/03/2025,124.91,125.78,119.93,120.58,2658472
09/04/2025,120.38,122.26,119.8,121.6,1689655
09/05/2025,119.91,120.57,117.04,117.93,3711246
09/08/2025,117.85,118.42,116.06,117.65,2550516
09/09/2025,118.38,119.75,117.26,117.31,2359304
09/10/2025,117.75,120.29,117.38,120.26,2128152
09/11/2025,119.08,120.395,118.54,120,2283146
09/12/2025,120.77,121.02,117.97,118.16,1967253
09/15/2025,118,118.28,116.82,117.54,2179693
09/16/2025,118.93,121.38,118.34,120.84,2717673
09/17/2025,119.94,121.21,118.74,119.84,2851218
09/18/2025,120,120.14,117.735,118.32,2911400
09/19/2025,118.42,118.42,115.5,116,6830368
09/22/2025,115.67,116.23,114.99,115.41,2930032
09/23/2025,116.15,119.11,115.5,115.67,3838441
09/24/2025,116.66,118.63,116.03,116.7,3793329
09/25/2025,116.61,118.11,116.12,117.3,3809989
09/26/2025,116.68,119.2,116.68,117.31,4251822
09/29/2025,116.16,116.56,113.175,113.35,5446882
09/30/2025,112.05,112.61,111.02,112.12,7130096
10/01/2025,111.55,111.94,110.45,111.27,4107773
10/02/2025,111.1,113.32,110.29,110.4,4427550
10/03/2025,110.39,111.395,110.175,110.83,4788686
10/06/2025,110.64,111.505,110.39,110.45,3362060
10/07/2025,110.35,110.5757,108.87,110.45,3571657
10/08/2025,110.37,110.705,109.34,110.5,4190033
10/09/2025,111.4,112.42,110.08,111.92,4612146
10/10/2025,110.89,111.705,108.04,108.07,4434204
10/13/2025,109.67,109.98,108.12,109.72,4453762
10/14/2025,107.59,110.45,107.53,109.12,3101616
10/15/2025,109.48,110.11,107.94,108.63,2764665
10/16/2025,108.83,109.385,105.2,107.25,4392101
10/17/2025,106.55,107,104.96,106.22,6667725
10/20/2025,106.48,107.02,105.78,106.4,3635414
10/21/2025,106.8,107.225,106.01,106.04,4254022
10/22/2025,107.01,107.075,105.645,106.21,5151113
10/23/2025,108.5,109,107.24,108.08,4603748
10/24/2025,108,108.3199,106.315,106.38,3133225
10/27/2025,107.08,107.7,106.37,106.78,3795933
10/28/2025,106.76,106.785,105.625,105.9,3064881
10/29/2025,105.69,107,105.685,106,3740637
10/30/2025,105.57,106.41,104.94,105.46,3698720
10/31/2025,105.55,106.67,105.21,105.84,3965263
11/03/2025,105.91,105.99,103.9,105.64,3749735
11/04/2025,104,105.49,103.97,105.26,4758733
11/05/2025,105.06,106.5,104.75,105.19,3636047
11/06/2025,105.57,106.6,104.82,105,6018479
11/07/2025,106.23,106.63,103.5,105.41,7053620
11/10/2025,105.91,107.03,104.4,106.57,4811093
11/11/2025,107.29,110.67,107.27,109.34,5667051
11/12/2025,108.59,109.62,108.29,108.74,3397061
11/13/2025,109.37,110.52,108.764,109.24,3077845
11/14/2025,109.45,110.61,108.45,110.4,3721297
11/17/2025,110.53,111.115,108.63,109.48,3410872
11/18/2025,108.65,109.76,107.87,109.57,2720919
11/19/2025,107.29,107.4457,106.07,107.09,3337777
11/20/2025,107.55,109.5995,105.77,106.07,3833517
11/21/2025,105.8,107.85,105.235,106.97,3794247
11/24/2025,106.35,107.05,104.46,106.59,4095156
11/25/2025,105.56,106.04,104.61,105.47,3170540
11/26/2025,105.6,106.925,105.465,106.2,2650329
11/28/2025,106.11,108.45,105.93,107.85,1530660
12/01/2025,108.18,110.11,107.895,109.71,4119520
12/02/2025,109.49,109.65,108.06,109.06,3638316
12/03/2025,110.03,111.87,109.695,111.51,3922361
12/04/2025,111.72,112.695,111.28,112.16,3533655
12/05/2025,111.81,114.245,111.81,112.17,3128796
12/08/2025,111.03,112.315,110.0658,110.62,4162060
12/09/2025,110,111.22,109.28,109.39,3083271
12/10/2025,109.32,111.58,107.595,111.43,4705767
12/11/2025,110.84,111.73,109.2,109.51,3403801
12/12/2025,110.36,110.48,107.72,108.01,3438664
12/15/2025,108.19,108.38,104.8,105.93,5005889
12/16/2025,105.16,105.46,101.69,101.78,4435041
12/17/2025,102.01,105.0213,101.88,104.74,5374657
12/18/2025,104.21,104.21,102.12,102.61,3928244
12/19/2025,102.39,103.15,101.5936,101.93,9611737
12/22/2025,103.13,104.22,102.8101,103.42,2968976
12/23/2025,103.7,104.08,103.2501,103.99,2334825
12/24/2025,103.89,104.88,103.5,103.87,1647606
12/26/2025,103.71,104.3,103.06,103.5,2224989
12/29/2025,104.31,105.08,104.0301,104.64,3053096
12/30/2025,105.33,105.9,105.23,105.66,2820080
12/31/2025,105.68,105.87,104.61,105.01,2377453
01/02/2026,105,107.87,104.3301,107.27,3799579
01/05/2026,106.32,107.48,102.28,106.2,5158591
01/06/2026,106.54,107.12,104.29,105,3766459
01/07/2026,104.64,105.5,102.423,102.55,3104548
01/08/2026,102.5,106.82,102.5,105.57,4383361
01/09/2026,105.93,106.45,104.705,104.92,2502178
01/12/2026,105.47,106.5408,104.35,105.44,3249545
01/13/2026,106.13,109.425,106.12,108.04,4088767
01/14/2026,108.63,112.45,108.58,110.74,4405035
01/15/2026,108.75,110.16,107.42,108.02,4638215
01/16/2026,106.38,107.26,104.27,105.32,5649431
01/20/2026,106.77,107.31,104.99,106.21,4916519
01/21/2026,108.44,111.02,106.62,108.05,5964633
01/22/2026,107.46,107.81,105.27,106.32,4561586
01/23/2026,107.94,108.6199,106.82,108.33,5302768
01/26/2026,109.68,110.455,106.46,107.6,4806456
01/27/2026,108.39,109.3,106.78,108.59,3149263
01/28/2026,109.5,111.11,109.02,111.02,4990769
01/29/2026,113.83,115.45,111.99,112.08,8828102
01/30/2026,111.5,112.465,109.83,112.13,6757001
02/02/2026,108.75,110.05,107.52,108.41,8259515
02/03/2026,108.03,110.87,106.995,110.43,4563700
02/04/2026,111.23,114.97,110.99,114.67,4824724
02/05/2026,113.61,114.47,111.265,112.49,4253872
02/06/2026,112.78,114.7849,112,113.7,2533281
02/09/2026,113.375,114.64,113.26,113.87,3372101
02/10/2026,114.04,114.04,112.19,112.7,5404112
02/11/2026,114.66,118.3,113.87,118.22,5338810
02/12/2026,118.67,118.67,114.93,117.85,8307130
02/13/2026,117.94,121.11,117.94,120.73,4864216
02/17/2026,121.79,122.385,117.79,119.75,5219160
02/18/2026,121.64,122.63,120.25,122.27,5583376
02/19/2026,123.5,126.2,122.9801,123.87,5672703
02/20/2026,123.6,123.9999,122.01,123.08,6052783
02/23/2026,123.55,124.74,121.44,122.31,3854087.8
02/24/2026,122.95,124.16,121.16,123.7,6264003
02/25/2026,125.24,125.24,120.695,122.5,7378265.5
02/26/2026,121.02,123.69,119.313,121.13,5120215
02/27/2026,122.51,124.32,120.48,124.08,6899651.5
03/02/2026,126.58,128.83,124.17,128.65,9087165
03/03/2026,130,131.321,126.89,128.01,8149184
03/04/2026,126.03,128.06,124.2,127.82,5115104.5
03/05/2026,129.25,131.9,128.975,131.03,6538348
03/06/2026,132.81,134,130.775,131.41,6926042.5
03/09/2026,133.485,134.36,130.19,131.67,7598120
03/10/2026,130.19,130.8625,126.94,127.89,6669574.5
03/11/2026,129.07,132.64,128.51,132.51,5436912.5
03/12/2026,133.37,136.14,133.01,133.04,5809626
03/13/2026,133.36,134.09,132.77,133.6,4135019.5
03/16/2026,133.79,135.5,132.4,134.51,3926251
03/17/2026,134.81,136.86,133.76,135.72,4224013.5
03/18/2026,137,137.81,136.3001,137.52,4689998
03/19/2026,138.95,140.37,137.611,138.82,5381281
03/20/2026,139.35,140.9199,138.25,138.73,15690064
03/23/2026,135.85,141.135,135.3,139.68,5327421
03/24/2026,139.8,143.7299,139.8,142.53,4123911
03/25/2026,141.92,143.55,141,143.21,3538162
03/26/2026,144.32,148.7,144.18,147.49,4087684
03/27/2026,147.61,150.1,146.91,149.56,4102951.8
