12/01/2022,0.7,0.7948,0.6217,0.738,2273995
12/02/2022,0.74,0.7455,0.62,0.6405,1641607
12/05/2022,0.64,0.7837,0.58,0.61,1432751
12/06/2022,0.61,0.64,0.55,0.555,799110
12/07/2022,0.5613,0.5896,0.46,0.5544,860294
12/08/2022,0.51,0.55,0.47,0.5085,328824
12/09/2022,0.5017,0.5727,0.48,0.5327,330280
12/12/2022,0.5716,0.6,0.533,0.554,738554
12/13/2022,0.5722,0.7098,0.57,0.61,2976421
12/14/2022,0.6113,0.655,0.52,0.6061,557887
12/15/2022,0.6201,0.6255,0.5702,0.598,287547
12/16/2022,0.5704,0.59,0.502,0.5085,639901
12/19/2022,0.52,0.5455,0.44,0.479,538706
12/20/2022,0.4699,0.4746,0.45,0.45,589191
12/21/2022,0.469999,0.48,0.4264,0.45,401263
12/22/2022,0.47,0.4799,0.369,0.4401,188421
12/23/2022,0.4136,0.4539,0.4,0.44,106238
12/27/2022,0.43,0.4497,0.415,0.44,112939
12/28/2022,0.43,0.449251,0.42,0.44,180382
12/29/2022,0.4275,0.4534,0.42,0.4388,188525
12/30/2022,0.43,0.52,0.42,0.5114,440899
01/03/2023,0.525,0.5471,0.47,0.5194,331435
01/04/2023,0.5,0.535,0.4516,0.4885,327522
01/05/2023,0.48,0.4806,0.4388,0.45,206399
01/06/2023,0.45,0.4869,0.43,0.484,165042
01/09/2023,0.4695,0.58,0.4695,0.52,521193
01/10/2023,0.57,0.579899,0.477501,0.52,574183
01/11/2023,0.4846,0.51,0.465,0.4743,271172
01/12/2023,0.3835,0.43,0.37,0.4032,2420167
01/13/2023,0.4155,0.49,0.4155,0.45,663207
01/17/2023,0.4716,0.4796,0.4401,0.4401,422415
01/18/2023,0.4663,0.47,0.43,0.43,289507
01/19/2023,0.47,0.47,0.4101,0.44,750276
01/20/2023,0.47,0.5399,0.431,0.4836,2097119
01/23/2023,0.4997,0.523,0.4701,0.4701,1340217
01/24/2023,0.47,0.4913,0.47,0.485,443206
01/25/2023,0.4833,0.4999,0.465,0.4866,312189
01/26/2023,0.482,0.499,0.4745,0.495,335428
01/27/2023,0.4996,0.53,0.48,0.49,445203
01/30/2023,0.5099,0.5189,0.48,0.4857,704784
01/31/2023,0.4921,0.5098,0.483,0.4832,595693
02/01/2023,0.492,0.5096,0.49,0.4999,547526
02/02/2023,0.5154,0.529,0.48,0.5,471917
02/03/2023,0.5,0.5096,0.482,0.5001,350991
02/06/2023,0.5065,0.5499,0.501,0.5198,5199968
02/07/2023,0.6144,0.6299,0.5212,0.5375,8135073
02/08/2023,0.5101,0.535,0.4801,0.5027,1775674
02/09/2023,0.5019,0.5211,0.485,0.5171,989025
02/10/2023,0.5199,0.5278,0.48,0.5201,614211
02/13/2023,0.5,0.52,0.49,0.5076,675550
02/14/2023,0.51,0.5899,0.51,0.5667,949178
02/15/2023,0.58,0.6398,0.5555,0.6116,1091745
02/16/2023,0.612,0.6341,0.5901,0.6128,814506
02/17/2023,0.63,0.6999,0.6201,0.6799,1231569
02/21/2023,0.71,0.717899,0.63,0.64,1008591
02/22/2023,0.6401,0.659899,0.6024,0.6147,299095
02/23/2023,0.62,0.647799,0.595,0.647,383241
02/24/2023,0.6265,0.64,0.603,0.6288,275178
02/27/2023,0.605,0.665,0.605,0.649,352908
02/28/2023,0.638,0.6574,0.6195,0.65,379747
03/01/2023,0.6305,0.647,0.6216,0.63,282947
03/02/2023,0.6362,0.6699,0.63,0.66,486634
03/03/2023,0.6438,0.6769,0.62,0.665,286500
03/06/2023,0.68,0.77,0.67,0.7399,1219437
03/07/2023,0.78,0.8,0.7399,0.7674,711832
03/08/2023,0.75,0.7515,0.7005,0.7258,736991
03/09/2023,0.7489,0.7799,0.73,0.765,936159
03/10/2023,0.81,0.842,0.7054,0.74,2781607
03/13/2023,0.84,0.87,0.7302,0.77,3836410
03/14/2023,0.77,0.776,0.645,0.7173,1596424
03/15/2023,0.6953,0.7349,0.66,0.7001,1034660
03/16/2023,0.705,0.7195,0.69,0.715,660818
03/17/2023,0.715,0.73,0.6805,0.6901,456865
03/20/2023,0.684,0.688799,0.557,0.6,865497
03/21/2023,0.6,0.6243,0.589,0.6062,431821
03/22/2023,0.5984,0.65,0.5984,0.6224,246316
03/23/2023,0.6238,0.677,0.59,0.6,331184
03/24/2023,0.6,0.61,0.5629,0.5988,250977
03/27/2023,0.59,0.629799,0.59,0.62,213643
03/28/2023,0.61,0.71,0.61,0.69,999351
03/29/2023,0.69,0.747,0.69,0.7301,671219
03/30/2023,0.75,0.78,0.73,0.75,506036
03/31/2023,0.78,0.8685,0.691,0.75,1483361
04/03/2023,0.75,0.7501,0.6,0.6899,642824
04/04/2023,0.7063,0.73,0.6586,0.6899,410072
04/05/2023,0.7148,0.7148,0.67,0.69,151386
04/06/2023,0.68,0.6879,0.645,0.645,356419
04/10/2023,0.6778,0.69,0.6426,0.6787,533955
04/11/2023,0.72,0.7356,0.683,0.7189,290607
04/12/2023,0.7413,0.75,0.713,0.7497,340142
04/13/2023,0.7461,0.79,0.72,0.77,390719
04/14/2023,0.777,0.777,0.702,0.762,278081
04/17/2023,0.7599,0.7599,0.7,0.7246,212242
04/18/2023,0.7208,0.734999,0.67,0.6999,497272
04/19/2023,0.693,0.6999,0.6695,0.6779,135496
04/20/2023,0.6849,0.6849,0.6271,0.6549,344513
04/21/2023,0.648,0.671,0.612,0.6709,329940
04/24/2023,0.66,0.69,0.63,0.6498,132364
04/25/2023,0.6509,0.6688,0.5813,0.5986,389384
04/26/2023,0.5961,0.6199,0.5901,0.5975,523870
04/27/2023,0.5953,0.6069,0.561,0.5902,166089
04/28/2023,0.6055,0.6154,0.575,0.5901,185108
05/01/2023,0.5881,0.6,0.511,0.5411,398632
05/02/2023,0.5351,0.569,0.5351,0.5514,201824
05/03/2023,0.5549,0.57,0.4894,0.509,739937
05/04/2023,0.52,0.5298,0.4902,0.5298,206693
05/05/2023,0.5224,0.537399,0.51,0.5196,132051
05/08/2023,0.5492,0.5492,0.5099,0.52,173817
05/09/2023,0.5478,0.5478,0.492,0.5298,101199
05/10/2023,0.5373,0.5415,0.5,0.51,423501
05/11/2023,0.5029,0.53,0.465,0.5,351061
05/12/2023,0.5085,0.5189,0.487,0.4973,122524
05/15/2023,0.5,0.51,0.4812,0.4898,172268
05/16/2023,0.49,0.5057,0.4817,0.4912,144632
05/17/2023,0.5145,0.5145,0.46,0.471,207869
05/18/2023,0.4789,0.49,0.4559,0.465,157604
05/19/2023,0.48,0.48,0.371,0.4453,487698
05/22/2023,0.4521,0.4696,0.430199,0.4368,222259
05/23/2023,0.46,0.4698,0.4368,0.45,228158
05/24/2023,0.441,0.4698,0.441,0.4551,164825
05/25/2023,0.4689,0.53,0.468799,0.51,296952
05/26/2023,0.51,0.57,0.51,0.5343,329684
05/30/2023,0.55,0.55,0.5011,0.5357,191289
05/31/2023,0.52625,0.5575,0.515,0.5525,119300
06/01/2023,0.56,0.56,0.52,0.55,104437
06/02/2023,0.54,0.58,0.54,0.5404,273367
06/05/2023,0.54,0.569,0.54,0.565,116839
06/06/2023,0.57,0.57,0.4445,0.5003,611778
06/07/2023,0.5,0.5197,0.48,0.4998,140801
06/08/2023,0.5,0.5,0.455,0.463,287077
06/09/2023,0.46,0.4761,0.432,0.4611,169093
06/12/2023,0.4765,0.4765,0.45,0.4621,70428
06/13/2023,0.4621,0.4699,0.445,0.469,155845
06/14/2023,0.48,0.4989,0.4566,0.48,137846
06/15/2023,0.49,0.565,0.47,0.5101,455614
06/16/2023,0.53,0.5605,0.501,0.52,195299
06/20/2023,0.5,0.5489,0.5,0.5133,111287
06/21/2023,0.513,0.5298,0.48,0.4991,134723
06/22/2023,0.51,0.5209,0.4901,0.5041,74864
06/23/2023,0.53,0.54,0.4936,0.5001,156673
06/26/2023,0.5,0.5248,0.491,0.5029,81360
06/27/2023,0.4902,0.51,0.4902,0.5027,86555
06/28/2023,0.5,0.51,0.4959,0.5001,102212
06/29/2023,0.4902,0.5,0.4719,0.481001,187792
06/30/2023,0.49,0.5299,0.47739,0.5184,599539
07/03/2023,0.61,0.6388,0.563,0.6185,5190853
07/05/2023,0.5889,0.65,0.5889,0.6199,830057
07/06/2023,0.62,0.7799,0.6021,0.74,2468947
07/07/2023,0.73,0.85,0.7001,0.765,881415
07/10/2023,0.7555,0.8598,0.67,0.8123,889588
07/11/2023,0.81,0.91,0.8001,0.8921,703593
07/12/2023,0.93,0.94,0.7798,0.7798,687344
07/13/2023,0.784,0.88,0.784,0.823,360209
07/14/2023,0.8208,0.8452,0.775,0.7999,334699
07/17/2023,0.8,0.84,0.7874,0.8014,217730
07/18/2023,0.8014,0.8497,0.7633,0.8402,404715
07/19/2023,0.84,0.86,0.8201,0.8484,170018
07/20/2023,0.8559,0.8559,0.7502,0.797,239886
07/21/2023,0.8266,0.8266,0.78,0.793,177203
07/24/2023,0.781,0.82,0.781,0.8051,59958
07/25/2023,0.8099,0.83,0.761,0.7987,202194
07/26/2023,0.8,0.8,0.755,0.7552,132011
07/27/2023,0.7766,0.82,0.7462,0.7698,140526
07/28/2023,0.7812,0.799,0.7106,0.718,301070
07/31/2023,0.7015,0.7451,0.7,0.7225,226103
08/01/2023,0.72,0.7699,0.7101,0.731,182468
08/02/2023,0.72,0.73,0.7006,0.7169,66817
08/03/2023,0.7051,0.7299,0.6255,0.6666,313980
08/04/2023,0.6798,0.6963,0.6501,0.6682,97930
08/07/2023,0.67,0.67,0.6343,0.6473,40110
08/08/2023,0.637,0.6658,0.637,0.64,42766
08/09/2023,0.6794,0.72,0.655,0.691201,192288
08/10/2023,0.7398,0.7398,0.6183,0.6382,350962
08/11/2023,0.64,0.6599,0.6011,0.6012,256634
08/14/2023,0.619,0.75,0.6031,0.6998,214362
08/15/2023,0.6811,0.6998,0.6098,0.66,299382
08/16/2023,0.6635,0.6777,0.51,0.5533,381081
08/17/2023,0.5559,0.5833,0.4966,0.5501,393583
08/18/2023,0.568,0.569399,0.5095,0.5566,242511
08/21/2023,0.5577,0.63,0.5566,0.6167,432850
08/22/2023,0.639,0.6401,0.574,0.5741,347926
08/23/2023,0.5721,0.7,0.5721,0.6312,271481
08/24/2023,0.65,0.78,0.6398,0.75,722190
08/25/2023,0.61,0.72,0.61,0.674,664718
08/28/2023,0.65,0.82,0.6189,0.8,1227220
08/29/2023,0.7739,0.813,0.75,0.788,358280
08/30/2023,0.77,0.7999,0.707,0.74,241517
08/31/2023,0.741,0.775,0.7256,0.77,165105
09/01/2023,0.752,0.868,0.752,0.85,695420
09/05/2023,0.8593,0.9137,0.8572,0.9041,987810
09/06/2023,0.92,0.93,0.8368,0.92,845433
09/07/2023,0.92,0.92,0.85,0.916,476262
09/08/2023,0.9299,1.1572,0.8661,1.06,1533159
09/11/2023,1.04,1.23,1.04,1.12,1654495
09/12/2023,1.15,1.43,1.13,1.24,2672442
09/13/2023,1.21,1.35,1.21,1.3,572786
09/14/2023,1.27,1.32,1.24,1.31,350982
09/15/2023,1.27,1.3,1.1502,1.28,659969
09/18/2023,1.24,1.3487,1.2001,1.25,280888
09/19/2023,1.25,1.26,1.16,1.22,326280
09/20/2023,1.19,1.21,1.075,1.08,263706
09/21/2023,1.05,1.15,1.025,1.04,305634
09/22/2023,1.04,1.26,1.04,1.19,335950
09/25/2023,1.2,1.36,1.2,1.29,404127
09/26/2023,1.29,1.34,1.24,1.24,264886
09/27/2023,1.25,1.29,1.1001,1.18,566169
09/28/2023,1.17,1.17,1.0809,1.13,199455
09/29/2023,1.12,1.18,1.055,1.11,187306
10/02/2023,1.11,1.15,1.0601,1.12,252909
10/03/2023,1.12,1.12,0.96,0.98,499732
10/04/2023,1,1.09,0.99,1.07,181031
10/05/2023,1.1,1.1,1.03,1.1,166559
10/06/2023,1.08,1.14,1.05,1.14,122406
10/09/2023,1.14,1.14,1.05,1.11,207351
10/10/2023,1.1,1.11,1.08,1.09,145313
10/11/2023,1.07,1.12,1.0625,1.1,153496
10/12/2023,1.12,1.1384,1.08,1.12,84835
10/13/2023,1.09,1.13,1.081,1.11,32534
10/16/2023,1.13,1.31,1.13,1.3,337568
10/17/2023,1.25,1.35,1.22,1.3,245023
10/18/2023,1.325,1.35,1.285,1.33,112399
10/19/2023,1.28,1.32,1.24,1.27,194100
10/20/2023,1.27,1.29,1.21,1.21,150444
10/23/2023,1.21,1.27,1.19,1.25,99520
10/24/2023,1.24,1.399,1.11,1.12,547475
10/25/2023,1.11,1.1999,1.11,1.12,186434
10/26/2023,1.14,1.16,1.08,1.1,151088
10/27/2023,1.09,1.15,1.06,1.09,111419
10/30/2023,1.12,1.13,1.0742,1.09,110290
10/31/2023,1.1,1.165,1.092,1.13,82941
11/01/2023,1.16,1.2899,1.14,1.25,204644
11/02/2023,1.3,1.39,1.19,1.35,436796
11/03/2023,1.36,1.4,1.31,1.37,252501
11/06/2023,1.41,1.7,1.41,1.66,995904
11/07/2023,1.7,1.87,1.56,1.76,740911
11/08/2023,1.76,1.99,1.725,1.89,645019
11/09/2023,1.92,2.0838,1.89,1.9,487486
11/10/2023,1.93,2.13,1.8401,2.13,378681
11/13/2023,2.15,2.27,1.8506,2.21,839992
11/14/2023,2.3,2.65,2.25,2.57,790933
11/15/2023,2.66,3.15,2.62,3.1,1402223
11/16/2023,3.07,3.21,2.65,3.03,994837
11/17/2023,2.98,3.2,2.674,2.89,731384
11/20/2023,2.91,3.3,2.78,3.06,707602
11/21/2023,3.09,3.29,3.0601,3.16,405161
11/22/2023,3.24,3.6359,3.12,3.31,917746
11/24/2023,3.36,3.4322,3.1,3.22,523379
11/27/2023,3.21,3.3994,3.21,3.35,490536
11/28/2023,3.37,3.419,3.13,3.19,557042
11/29/2023,3.28,3.378,3.1801,3.24,354334
11/30/2023,3.32,3.37,3.06,3.1,336395
12/01/2023,3.14,3.39,3.1,3.33,448428
12/04/2023,3.34,4.37,3.3,4.07,1883874
12/05/2023,4.14,4.2,3.9,4.01,651545
12/06/2023,4.16,4.54,4.01,4.05,955684
12/07/2023,4.15,4.44,4.01,4.29,644091
12/08/2023,4.15,4.4599,3.93,3.98,803240
12/11/2023,4.15,4.489,3.9,4.09,788809
12/12/2023,4.09,4.35,4.05,4.23,471652
12/13/2023,4.26,4.43,4.26,4.26,626293
12/14/2023,4.38,4.73,4.38,4.7,858131
12/15/2023,4.9,5.5799,4.8905,5.18,1761632
12/18/2023,5.49,5.5,5.01,5.14,1035536
12/19/2023,5.2,5.4199,5.03,5.05,471387
12/20/2023,5.11,5.11,3.96,4.08,1762629
12/21/2023,4.11,4.615,3.0101,4.32,1783332
12/22/2023,4.36,4.99,4.35,4.39,635607
12/26/2023,4.5,5.06,4.41,5.03,542642
12/27/2023,5.15,5.44,4.92,5.14,480454
12/28/2023,5.17,5.35,5.1,5.35,615069
12/29/2023,5.3,5.36,4.62,5.01,1253845
01/02/2024,4.89,5.17,4.712,4.79,558333
01/03/2024,4.65,4.72,3.85,4.09,1228993
01/04/2024,4.18,4.56,4.1,4.29,491067
01/05/2024,4.31,4.91,4.21,4.74,615864
01/08/2024,4.92,5.04,4.75,4.97,699711
01/09/2024,5,5,4.4501,4.55,503573
01/10/2024,4.58,4.73,4.35,4.44,308894
01/11/2024,4.43,4.5,4.145,4.24,358121
01/12/2024,4.26,4.26,3.88,4.09,551181
01/16/2024,4.04,4.08,3.71,3.8,546008
01/17/2024,3.63,4.19,3.59,4.1,1646820
01/18/2024,4.16,4.19,3.86,4.02,1040576
01/19/2024,4,4.06,3.72,3.95,561001
01/22/2024,4,4.0799,3.63,3.7,788639
01/23/2024,3.74,3.92,3.65,3.85,595775
01/24/2024,3.85,3.87,3.55,3.65,616185
01/25/2024,3.69,3.69,3.28,3.35,758809
01/26/2024,3.35,3.41,2.84,3.26,1059633
01/29/2024,2.89,3.37,2.89,3.33,404018
01/30/2024,3.33,3.37,3.14,3.34,360476
01/31/2024,3.26,3.46,3.25,3.33,255924
02/01/2024,3.35,3.42,3.2,3.36,316567
02/02/2024,3.36,3.42,3.28,3.4,166703
02/05/2024,3.22,3.48,3.21,3.4,334874
02/06/2024,3.42,3.9,3.42,3.85,524784
02/07/2024,3.92,3.94,3.44,3.66,532469
02/08/2024,3.61,3.71,3.58,3.62,153429
02/09/2024,3.63,3.74,3.53,3.68,232101
02/12/2024,3.66,3.78,3.51,3.68,459716
02/13/2024,3.6,3.624,3.31,3.46,255202
02/14/2024,3.46,3.575,3.391,3.46,283976
02/15/2024,3.52,3.5519,3.31,3.38,213144
02/16/2024,3.39,3.425,3.23,3.26,232156
02/20/2024,3.23,3.25,2.93,2.98,324546
02/21/2024,2.97,3.07,2.85,2.87,208650
02/22/2024,2.94,3.01,2.84,2.95,332145
02/23/2024,2.86,2.9771,2.86,2.86,112825
02/26/2024,2.86,2.89,2.69,2.75,335755
02/27/2024,2.78,3.18,2.76,3.07,426268
02/28/2024,3.08,3.105,2.9101,2.93,221021
02/29/2024,2.98,3.11,2.98,3.06,164372
03/01/2024,3.22,4.03,3.2036,4.01,1428986
03/04/2024,4.1,4.1899,3.82,3.97,528486
03/05/2024,3.94,3.94,3.56,3.61,246107
03/06/2024,3.69,3.91,3.56,3.68,273782
03/07/2024,3.72,3.8697,3.36,3.52,345842
03/08/2024,3.54,3.5607,2.9,3.19,495199
03/11/2024,3.24,3.81,3.24,3.65,533050
03/12/2024,3.76,4.08,3.71,3.8,488835
03/13/2024,3.82,3.87,3.59,3.65,193265
03/14/2024,3.72,3.7782,3.3,3.44,292500
03/15/2024,3.37,3.635,3.37,3.58,153195
03/18/2024,3.75,4.0299,3.67,3.67,389266
03/19/2024,3.65,3.71,3.52,3.57,239319
03/20/2024,3.55,3.63,3.42,3.62,162469
03/21/2024,3.67,3.82,3.5,3.61,291152
03/22/2024,3.56,3.66,3.4,3.57,212213
03/25/2024,3.54,3.59,3.3,3.39,412592
03/26/2024,3.39,3.4,3.26,3.33,194928
03/27/2024,3.37,3.5,3.2819,3.5,125143
03/28/2024,3.49,3.5,3.23,3.27,94787
04/01/2024,3.16,3.21,3.06,3.09,236075
04/02/2024,3.05,3.13,2.95,3.03,264209
04/03/2024,2.96,3.09,2.96,2.97,139604
04/04/2024,3.02,3.298,3.0194,3.14,197831
04/05/2024,3.12,3.2499,3,3.05,164295
04/08/2024,3.06,3.19,3.06,3.14,133887
04/09/2024,3.14,3.45,3.13,3.13,234112
04/10/2024,3.08,3.09,2.92,3.09,174071
04/11/2024,3.11,3.21,3.025,3.12,135135
04/12/2024,3.06,3.12,2.95,2.97,124753
04/15/2024,2.94,3.0299,2.69,2.7,335923
04/16/2024,2.58,2.86,2.5108,2.82,208044
04/17/2024,2.85,2.97,2.72,2.72,151652
04/18/2024,2.78,2.94,2.73,2.82,200355
04/19/2024,2.85,3.24,2.85,3.19,324053
04/22/2024,3.21,3.5348,3.17,3.44,215473
04/23/2024,3.45,3.64,3.45,3.54,100483
04/24/2024,3.54,3.63,3.43,3.44,76789
04/25/2024,3.39,3.44,3.29,3.42,61906
04/26/2024,3.43,3.51,3.36,3.43,158542
04/29/2024,3.42,3.42,3.21,3.32,123384
04/30/2024,3.29,3.39,3.26,3.27,57203
05/01/2024,3.28,3.62,3.17,3.53,299812
05/02/2024,3.62,3.94,3.54,3.92,358179
05/03/2024,3.95,4.19,3.65,3.76,446405
05/06/2024,3.7,4.3793,3.7,3.94,1013108
05/07/2024,3.9,3.94,3.55,3.62,208736
05/08/2024,3.63,3.965,3.52,3.93,362488
05/09/2024,3.89,3.89,3.41,3.56,377189
05/10/2024,3.58,3.83,3.52,3.83,329425
05/13/2024,3.89,3.9927,3.62,3.64,89095
05/14/2024,3.68,3.7,3.5,3.58,127769
05/15/2024,3.58,3.7858,3.5506,3.78,316215
05/16/2024,3.77,3.89,3.66,3.68,130681
05/17/2024,3.71,3.766,3.57,3.64,149403
05/20/2024,3.63,3.78,3.62,3.75,73302
05/21/2024,3.7,3.955,3.7,3.86,252193
05/22/2024,3.83,4.14,3.82,4.06,589071
05/23/2024,4.05,4.05,3.77,3.83,214010
05/24/2024,3.87,3.905,3.71,3.83,141281
05/28/2024,3.82,3.82,3.6,3.62,203893
05/29/2024,3.59,3.59,3.36,3.49,222800
05/30/2024,3.44,3.52,3.3985,3.47,224567
05/31/2024,3.47,3.57,3.35,3.41,123833
06/03/2024,3.49,3.6,3.39,3.4,129250
06/04/2024,3.39,3.49,3.37,3.41,117621
06/05/2024,3.41,3.58,3.3835,3.49,247547
06/06/2024,3.46,3.59,3.46,3.51,229627
06/07/2024,3.48,3.48,3.33,3.39,271860
06/10/2024,3.33,3.48,3.25,3.4,234060
06/11/2024,3.4,3.7681,3.36,3.73,314676
06/12/2024,3.73,3.73,3.6,3.61,144844
06/13/2024,3.64,3.65,3.44,3.47,107414
06/14/2024,3.4,3.47,3.33,3.38,173721
06/17/2024,3.4,3.435,3.305,3.32,111149
06/18/2024,3.29,3.37,3.2,3.23,148345
06/20/2024,3.25,3.31,3.09,3.14,157825
06/21/2024,3.17,3.24,3.13,3.24,253664
06/24/2024,3.25,3.265,3.125,3.14,261838
06/25/2024,3.12,3.15,3.03,3.04,245754
06/26/2024,3.06,3.11,2.99,3,146951
06/27/2024,3.02,3.08,2.9898,3.02,129036
06/28/2024,3.05,3.26,3.04,3.21,327362
07/01/2024,3.24,3.2754,2.95,3.08,306491
07/02/2024,3.07,3.08,2.81,2.81,336628
07/03/2024,2.85,2.8988,2.76,2.82,292060
07/05/2024,2.8,2.87,2.76,2.87,184380
07/08/2024,3.11,4.1384,3.11,4.07,4780939
07/09/2024,4.08,5.19,4.08,4.65,3695060
07/10/2024,4.65,5.1,4.42,5,1111278
07/11/2024,5.08,5.43,4.7,4.89,864383
07/12/2024,4.88,4.972,4.53,4.59,498359
07/15/2024,4.68,5.05,4.61,5,534586
07/16/2024,4.9,5.0501,4.86,4.96,282905
07/17/2024,4.89,5.34,4.71,5.23,1058589
07/18/2024,5.19,5.3,4.83,5.08,410123
07/19/2024,5.08,5.16,4.77,5.03,241522
07/22/2024,5.08,5.64,5.08,5.63,802210
07/23/2024,5.57,5.6,5.23,5.6,541887
07/24/2024,5.33,5.47,4.8,4.85,789563
07/25/2024,4.82,5.04,4.75,4.86,385758
07/26/2024,4.99,4.995,4.87,4.89,281077
07/29/2024,4.89,4.9284,4.65,4.7,309650
07/30/2024,4.63,4.73,4.31,4.44,601677
07/31/2024,4.6,5.03,4.57,4.76,544021
08/01/2024,4.74,4.88,4.31,4.42,439084
08/02/2024,4.25,4.41,4.1081,4.2,442727
08/05/2024,3.84,4.135,3.74,4.08,598320
08/06/2024,4.31,4.34,4.16,4.2,366537
08/07/2024,3.97,4.1899,3.6,3.64,634420
08/08/2024,3.71,3.89,3.6,3.85,282638
08/09/2024,3.8,4.02,3.756,4.02,294463
08/12/2024,4.06,4.2,3.82,3.86,166296
08/13/2024,3.87,3.91,3.7,3.83,139459
08/14/2024,3.8,3.87,3.7,3.83,232136
08/15/2024,3.87,3.9373,3.7489,3.75,130788
08/16/2024,3.71,3.8,3.6601,3.71,126229
08/19/2024,3.71,3.87,3.6,3.72,267247
08/20/2024,3.7,3.78,3.62,3.78,370463
08/21/2024,3.82,4.075,3.8,4.05,367416
08/22/2024,4.11,4.185,3.8,3.86,225024
08/23/2024,3.84,3.93,3.79,3.9,182026
08/26/2024,3.9,3.91,3.76,3.9,256291
08/27/2024,3.85,4.03,3.77,3.97,169004
08/28/2024,3.92,4.2,3.8604,4.02,212602
08/29/2024,4.08,4.5,4.07,4.28,262210
08/30/2024,4.22,4.49,4.22,4.48,149244
09/03/2024,4.3,4.37,3.85,3.89,278821
09/04/2024,3.91,3.91,3.7,3.76,208249
09/05/2024,3.73,3.89,3.73,3.77,111203
09/06/2024,3.8,3.8699,3.7,3.75,83454
09/09/2024,3.77,4.07,3.7,4,263882
09/10/2024,3.97,4.02,3.88,3.97,102866
09/11/2024,3.98,4.22,3.93,4.08,184235
09/12/2024,4.07,4.15,3.98,4.1,217247
09/13/2024,4.1,4.21,4,4.04,121667
09/16/2024,4.02,4.08,3.88,4.01,105890
09/17/2024,4.11,4.11,3.9,3.93,157911
09/18/2024,4.02,4.04,3.8,3.8,262002
09/19/2024,3.95,3.9856,3.82,3.83,184307
09/20/2024,3.81,3.91,3.75,3.89,137699
09/23/2024,3.93,4.0517,3.84,3.84,81391
09/24/2024,3.91,3.95,3.71,3.71,57660
09/25/2024,3.78,3.86,3.71,3.82,122566
09/26/2024,3.8,3.87,3.7,3.71,142122
09/27/2024,3.74,3.98,3.71,3.9,99187
09/30/2024,3.86,4.04,3.8,4.01,84602
10/01/2024,3.91,3.99,3.7701,3.89,90375
10/02/2024,3.9,3.9913,3.85,3.95,60332
10/03/2024,3.9,4.06,3.8701,3.98,64999
10/04/2024,4.04,4.04,3.9,4.02,79745
10/07/2024,4.02,4.0509,3.8,3.8,61772
10/08/2024,3.81,3.99,3.81,3.93,141114
10/09/2024,3.93,3.93,3.739,3.88,194358
10/10/2024,3.85,3.86,3.78,3.82,119603
10/11/2024,3.81,3.92,3.78,3.87,151177
10/14/2024,3.91,4.05,3.81,3.88,199013
10/15/2024,3.91,3.9995,3.81,3.87,82841
10/16/2024,3.85,3.97,3.83,3.95,101208
10/17/2024,3.96,3.99,3.78,3.78,93095
10/18/2024,3.8,3.8707,3.7,3.77,75583
10/21/2024,3.73,3.76,3.63,3.72,101418
10/22/2024,3.65,3.76,3.65,3.73,78708
10/23/2024,3.7,3.8,3.67,3.75,75443
10/24/2024,3.77,3.8001,3.69,3.77,44860
10/25/2024,3.81,3.81,3.75,3.76,20449
10/28/2024,3.77,4,3.75,3.95,150450
10/29/2024,3.96,4,3.9,3.92,35986
10/30/2024,3.92,3.92,3.82,3.92,61751
10/31/2024,3.85,3.8848,3.59,3.66,272753
11/01/2024,3.67,3.8307,3.66,3.74,128038
11/04/2024,3.69,3.9434,3.68,3.83,84898
11/05/2024,3.86,4.05,3.8,3.96,184068
11/06/2024,4.08,4.24,3.95,4.18,312549
11/07/2024,4.3,5.24,4.21,5.02,700561
11/08/2024,5,5.35,4.78,4.81,328429
11/11/2024,4.69,5.11,4.65,4.9,233846
11/12/2024,4.88,4.99,4.69,4.99,291878
11/13/2024,4.97,5.0499,4.71,4.72,122379
11/14/2024,4.7,4.85,4.5,4.85,291733
11/15/2024,4.78,4.78,4.604,4.66,193070
11/18/2024,4.63,4.74,4.56,4.74,83620
11/19/2024,4.76,5.02,4.76,4.93,239894
11/20/2024,4.85,5.15,4.72,4.92,200898
11/21/2024,4.93,4.93,4.685,4.8,96670
11/22/2024,4.76,5.17,4.76,5.09,430954
11/25/2024,5.16,5.3,5.0101,5.13,150067
11/26/2024,5.1,5.286,5.03,5.27,178883
11/27/2024,5.25,5.39,5.0812,5.22,187089
11/29/2024,5.22,5.66,5.13,5.62,385733
12/02/2024,5.64,5.69,5.36,5.48,193742
12/03/2024,5.48,5.56,5.21,5.39,195469
12/04/2024,5.4,5.64,5.2905,5.35,233533
12/05/2024,5.49,6.37,5.4228,5.95,2109939
12/06/2024,6.15,6.3,5.995,6.02,484418
12/09/2024,6.01,6.4,6.01,6.31,351700
12/10/2024,6.31,6.5,6.21,6.21,294577
12/11/2024,6.05,6.61,5.8,6.38,387939
12/12/2024,6.51,6.58,6.2912,6.36,209115
12/13/2024,6.31,6.745,6.19,6.26,270011
12/16/2024,6.1,6.42,5.94,6.06,218981
12/17/2024,5.99,6.115,5.87,6,159764
12/18/2024,6,6.14,5.59,5.63,317942
12/19/2024,5.63,6.12,5.48,6.09,283981
12/20/2024,6.02,6.31,6,6.12,326282
12/23/2024,6.11,6.1845,5.84,6.03,197289
12/24/2024,5.98,6.5,5.965,6.42,227536
12/26/2024,6.47,6.49,6.2,6.42,353834
12/27/2024,6.3,6.37,6.025,6.37,271516
12/30/2024,6.21,6.3399,5.87,6.16,370958
12/31/2024,6.14,6.4842,6.08,6.44,235933
01/02/2025,6.38,6.61,6.25,6.48,233651
01/03/2025,6.57,6.65,6.4708,6.59,236921
01/06/2025,6.87,6.99,6.42,6.83,591382
01/07/2025,6.86,7.1699,6.68,6.99,2299509
01/08/2025,7.1,7.1693,6.78,6.92,405257
01/10/2025,6.79,6.82,6.2521,6.51,503071
01/13/2025,6.44,6.445,5.83,6,347230
01/14/2025,6.02,6.23,5.87,6.05,404846
01/15/2025,6.2,6.2756,6.03,6.18,192620
01/16/2025,6.23,6.2325,6.06,6.15,160353
01/17/2025,6.2,6.31,5.9501,6.1,303547
01/21/2025,6.14,6.188,5.86,5.99,266047
01/22/2025,6.02,6.21,5.975,6.09,581831
01/23/2025,6.01,6.155,5.99,6.1,397852
01/24/2025,6.07,6.22,5.94,6.04,325397
01/27/2025,6,6,5.58,5.66,371432
01/28/2025,5.6,5.95,5.56,5.84,382914
01/29/2025,5.91,5.91,5.91,5.91,0
01/30/2025,5.82,6.07,5.8,5.92,171773
01/31/2025,5.98,6.2,5.8,6.03,332290
02/03/2025,5.9,6.09,5.85,6,205287
02/04/2025,6.06,6.36,6.0101,6.31,560485
02/05/2025,6.32,6.44,6.22,6.31,249472
02/06/2025,6.32,6.38,6.2,6.25,269749
02/07/2025,6.25,6.32,6.03,6.08,344969
02/10/2025,6.04,6.1,5.87,6.05,455737
02/11/2025,6,6.14,5.943,5.97,347953
02/12/2025,5.91,6.3325,5.91,6.29,373847
02/13/2025,6.33,6.3896,6.2104,6.31,218510
02/14/2025,6.28,6.3,6.1271,6.22,98873
02/18/2025,6.19,6.2575,6.06,6.06,110854
02/19/2025,6.05,6.1227,5.92,6.04,237777
02/20/2025,5.96,6.02,5.7501,5.9,271694
02/21/2025,5.96,6.02,5.66,5.74,306922
02/24/2025,5.74,5.758,5.28,5.4,445737
02/25/2025,5.39,5.45,5.055,5.1,613245
02/26/2025,5.11,5.32,5.07,5.13,277690
02/27/2025,5.19,5.19,4.93,4.95,251722
02/28/2025,4.91,5.07,4.9,5.07,217163
03/03/2025,5.08,5.12,4.78,4.8,195143
03/04/2025,4.3,4.76,4.21,4.57,384432
03/05/2025,4.61,4.705,4.51,4.68,152213
03/06/2025,4.55,4.67,4.42,4.43,282614
03/07/2025,4.44,4.6704,4.3636,4.6,376918
03/10/2025,4.69,4.69,4.12,4.17,704591
03/11/2025,5.57,6.2996,5.41,5.87,5393000
03/12/2025,6.05,6.05,5.365,5.43,978968
03/13/2025,5.34,5.4635,4.96,5.07,731590
03/14/2025,5.14,5.2799,5.055,5.19,388014
03/17/2025,5.22,5.52,5.19,5.44,508377
03/18/2025,5.29,5.39,5.14,5.31,564314
03/19/2025,5.35,5.56,5.35,5.48,380609
03/20/2025,5.33,5.55,5.33,5.42,324328
03/21/2025,5.35,5.5,5.28,5.38,322633
03/24/2025,5.5,5.6199,5.47,5.52,142460
03/25/2025,5.53,5.5897,5.3199,5.36,173148
03/26/2025,5.39,5.39,5,5.08,389673
03/27/2025,4.99,5.06,4.96,5,203662
03/28/2025,4.94,5.01,4.83,4.86,178186
03/31/2025,4.74,4.86,4.57,4.81,273151
04/01/2025,4.8,5.0368,4.7829,4.85,138500
04/02/2025,4.78,4.94,4.7263,4.9,131703
04/03/2025,4.57,4.7726,4.5,4.69,277815
04/04/2025,4.47,4.555,4.155,4.35,540461
04/07/2025,3.97,4.58,3.9,4.34,311638
04/08/2025,4.6,4.74,4.29,4.44,412681
04/09/2025,4.32,4.76,4.17,4.68,460900
04/10/2025,4.62,4.62,4.21,4.29,358118
04/11/2025,4.21,4.46,4.01,4.43,826898
04/14/2025,4.56,4.62,4.335,4.45,183268
04/15/2025,4.35,4.5,4.35,4.48,218869
04/16/2025,4.43,4.455,4.21,4.27,197854
04/17/2025,4.27,4.4,4.265,4.37,279528
04/21/2025,4.29,4.3,4.185,4.28,233276
04/22/2025,4.32,4.51,4.293,4.49,246950
04/23/2025,4.67,4.78,4.5631,4.65,211639
04/24/2025,4.68,4.89,4.63,4.88,221161
04/25/2025,4.86,4.91,4.7206,4.84,158647
04/28/2025,4.82,4.945,4.68,4.81,301782
04/29/2025,4.82,4.87,4.59,4.63,404627
04/30/2025,4.5,4.75,4.46,4.7,289938
05/01/2025,4.8,4.84,4.61,4.74,378457
05/02/2025,4.81,4.9883,4.77,4.88,336062
05/05/2025,4.83,4.89,4.72,4.73,246749
05/06/2025,4.67,4.81,4.645,4.77,363344
05/07/2025,4.73,4.87,4.72,4.84,364653
05/08/2025,4.16,4.205,3.24,3.36,2959190
05/09/2025,3.37,3.47,3.16,3.2,1130564
05/12/2025,3.38,3.45,3.28,3.32,770278
05/13/2025,3.31,3.38,3.095,3.19,1153050
05/14/2025,3.26,3.4388,3.25,3.25,717992
05/15/2025,3.26,3.2995,3.08,3.23,935689
05/16/2025,3.37,3.685,3.36,3.57,871222
05/19/2025,3.45,3.45,3.28,3.42,479327
05/20/2025,3.36,3.45,3.26,3.36,441062
05/21/2025,3.32,3.39,3.21,3.22,469461
05/22/2025,3.21,3.29,3.16,3.21,449635
05/23/2025,3.13,3.1384,3.03,3.11,451854
05/27/2025,3.12,3.22,3.05,3.14,458742
05/28/2025,3.15,3.196,3.06,3.07,237992
05/29/2025,3.1,3.1393,3.035,3.06,282214
05/30/2025,3.03,3.04,2.83,2.97,1075226
06/02/2025,2.91,2.995,2.82,2.93,444263
06/03/2025,2.9,2.965,2.82,2.88,317409
06/04/2025,2.86,2.929,2.83,2.88,395428
06/05/2025,2.9,3.06,2.86,2.99,1361374
06/06/2025,3.01,3.08,2.93,2.98,445802
06/09/2025,3,3.04,2.87,2.97,521544
06/10/2025,2.95,2.99,2.88,2.88,315838
06/11/2025,2.88,2.95,2.83,2.86,281843
06/12/2025,2.83,2.8886,2.75,2.8,450531
06/13/2025,2.76,2.805,2.695,2.8,830051
06/16/2025,2.83,2.89,2.775,2.79,447213
06/17/2025,2.8,2.8695,2.75,2.75,275822
06/18/2025,2.81,2.83,2.69,2.71,437792
06/20/2025,2.68,2.68,2.345,2.42,1490201
06/23/2025,2.42,2.42,2.2,2.27,1020938
06/24/2025,2.3,2.4,2.25,2.36,578299
06/25/2025,2.37,2.38,2.2917,2.3,253059
06/26/2025,2.33,2.3798,2.215,2.22,325505
06/27/2025,2.23,2.35,2.16,2.26,4904948
06/30/2025,2.26,2.28,2.15,2.16,449519
07/01/2025,2.04,2.25,2.02,2.16,1153818
07/02/2025,2.14,2.1609,2.06,2.08,365464
07/03/2025,2.11,2.15,2.03,2.03,403535
07/07/2025,2.07,2.11,2.02,2.04,337154
07/08/2025,2.04,2.12,2.04,2.09,280070
07/09/2025,2.1,2.21,2.08,2.21,341006
07/10/2025,2.24,2.33,2.16,2.19,470156
07/11/2025,2.23,2.38,2.06,2.08,854914
07/14/2025,2.09,2.0941,1.957,2.06,616484
07/15/2025,2.06,2.08,1.99,2,424953
07/16/2025,2,2.03,1.845,1.95,895551
07/17/2025,1.97,2.09,1.94,2.05,582757
07/18/2025,2.06,2.07,1.965,1.99,187494
07/21/2025,2,2.22,2,2.1,655282
07/22/2025,2.14,2.15,2.06,2.11,333092
07/23/2025,2.15,2.16,2.09,2.15,218138
07/24/2025,2.14,2.16,2.09,2.16,257180
07/25/2025,2.17,2.2,2.11,2.11,182927
07/28/2025,2.12,2.135,2.02,2.02,247182
07/29/2025,2.06,2.06,1.88,1.98,549608
07/30/2025,1.99,2.03,1.92,1.97,398117
07/31/2025,1.97,1.9998,1.91,1.93,316987
08/01/2025,1.9,1.905,1.83,1.87,335294
08/04/2025,1.88,1.96,1.865,1.96,344615
08/05/2025,1.97,2.02,1.95,1.97,263619
08/06/2025,1.98,2.01,1.85,1.85,382873
08/07/2025,1.89,1.9,1.78,1.79,421306
08/08/2025,1.85,1.985,1.795,1.83,678827
08/11/2025,1.82,1.84,1.67,1.76,2106232
08/12/2025,1.06,1.13,0.95,1.08,8738310
08/13/2025,1.09,1.16,1.04,1.05,2917509
08/14/2025,1.03,1.04,0.95,0.98,2760644
08/15/2025,0.97,0.9982,0.9245,0.975,3273438
08/18/2025,1,1.14,1,1.12,4298954
08/19/2025,1.16,1.24,1.1201,1.14,2959720
08/20/2025,1.14,1.255,1.115,1.12,2183836
08/21/2025,1.1,1.15,1.09,1.12,828758
08/22/2025,1.11,1.2,1.1,1.18,1228897
08/25/2025,1.18,1.18,1.07,1.09,1334647
08/26/2025,1.14,1.155,1.08,1.12,1063781
08/27/2025,1.13,1.17,1.0994,1.12,1570163
08/28/2025,1.13,1.13,1.05,1.07,1044722
08/29/2025,1.08,1.09,1.01,1.05,1106906
09/02/2025,1.06,1.09,1.03,1.06,783144
09/03/2025,1.07,1.07,1.01,1.03,609656
09/04/2025,1.03,1.03,0.9656,1.01,1193206
09/05/2025,1.01,1.02,0.961,0.9978,893834
09/08/2025,0.995,0.9999,0.97,0.9931,648026
09/09/2025,1,1.01,0.9413,0.9508,835561
09/10/2025,0.95,0.9795,0.8526,0.8723,2216771
09/11/2025,0.8719,0.934,0.8719,0.8992,1022242
09/12/2025,0.9,0.929,0.805,0.8439,2706604
09/15/2025,0.8576,0.8793,0.842801,0.8793,2888202
09/16/2025,0.878,0.8819,0.8043,0.8225,2963740
09/17/2025,0.8145,0.8972,0.8101,0.834,3278958
09/18/2025,0.8366,0.8646,0.83,0.84,945403
09/19/2025,0.851,0.91,0.85,0.87,1729981
09/22/2025,0.87,0.9005,0.813,0.85,1981684
09/23/2025,0.8543,0.9877,0.8504,0.949,2230222
09/24/2025,1.01,1.07,1,1.04,2056526
09/25/2025,1.04,1.06,0.902,0.91,2664573
09/26/2025,0.9541,1.03,0.9185,0.9311,1990572
09/29/2025,0.935,0.9657,0.9,0.9474,1593286
09/30/2025,0.9447,0.9447,0.8723,0.892,1879476
10/01/2025,0.8855,0.935,0.8687,0.9152,698171
10/02/2025,0.9108,0.929,0.89315,0.9167,922863
10/03/2025,0.9238,1.02,0.9238,0.951,1641702
10/06/2025,0.99,1.05,0.9702,0.9782,1765096
10/07/2025,1.04,1.09,1,1.05,2808349
10/08/2025,1.06,1.31,1.05,1.18,8445060
10/09/2025,1.28,1.31,1.14,1.16,4222529
10/10/2025,1.19,1.2799,1.05,1.08,4731091
10/13/2025,1.12,1.14,1.06,1.11,1840859
10/14/2025,1.03,1.2,1.02,1.16,2071622
10/15/2025,1.19,1.19,1.1,1.13,1510484
10/16/2025,1.14,1.15,1.0702,1.08,1473417
10/17/2025,1.07,1.11,1.025,1.03,1422182
10/20/2025,1.07,1.13,1.05,1.12,1518951
10/21/2025,1.13,1.16,1.065,1.12,1147973
10/22/2025,1.1,1.155,1.045,1.09,1763908
10/23/2025,1.07,1.08,1.04,1.05,916156
10/24/2025,1.08,1.115,1.0704,1.11,1190532
10/27/2025,1.11,1.1298,1.06,1.07,953707
10/28/2025,1.08,1.1,1,1.02,1107908
10/29/2025,1.01,1.0277,0.9524,0.9651,1465431
10/30/2025,0.9674,0.98,0.91,0.93,1207049
10/31/2025,0.9278,0.9575,0.9051,0.926,951609
11/03/2025,0.95,0.9657,0.85,0.8678,898686
11/04/2025,0.8567,0.88,0.812,0.8405,684778
11/05/2025,0.85,0.865,0.815,0.8629,567102
11/06/2025,0.88,0.88,0.801,0.817,1196534
11/07/2025,0.81,0.8537,0.7853,0.8537,884285
11/10/2025,0.9134,0.93,0.86,0.917,1122201
11/11/2025,0.95,0.975244,0.85,0.85,996863
11/12/2025,0.85,0.8993,0.85,0.85,451299
11/13/2025,0.8505,0.8745,0.7979,0.8084,769538
11/14/2025,0.803,0.8315,0.78,0.8159,756619
11/17/2025,0.8382,0.8391,0.77,0.77,669779
11/18/2025,0.77,0.77,0.7155,0.7204,1064879
11/19/2025,0.749,0.77,0.711,0.7222,717603
11/20/2025,0.7528,0.8449,0.72,0.72,1025211
11/21/2025,0.72,0.7799,0.72,0.7658,501083
11/24/2025,0.809,0.8755,0.7773,0.84,887974
11/25/2025,0.84,0.8655,0.8208,0.8379,457415
11/26/2025,0.8652,0.91,0.845,0.8634,863659
11/28/2025,0.9,0.95,0.88,0.89,577605
12/01/2025,0.89,0.9499,0.8723,0.8951,529147
12/02/2025,0.9,0.9286,0.8706,0.89,405363
12/03/2025,0.91,0.97425,0.8663,0.9621,672945
12/04/2025,0.9637,1.04,0.9615,1.02,1393212
12/05/2025,1.04,1.055,0.9968,1.04,883482
12/08/2025,1.06,1.1,1.035,1.08,841395
12/09/2025,1.05,1.13,1.02,1.04,2040334
12/10/2025,1.05,1.11,1.03,1.07,1140540
12/11/2025,1.08,1.1,1.04,1.08,652242
12/12/2025,1.08,1.09,1.05,1.05,571841
12/15/2025,1.08,1.08,0.99,1,841199
12/16/2025,1,1.05,0.9906,1.04,357969
12/17/2025,1.04,1.04,0.9006,0.92,739738
12/18/2025,0.9322,0.96,0.9,0.901,964135
12/19/2025,0.91,0.96,0.901,0.9325,484231
12/22/2025,0.9373,1.015,0.9325,0.9741,421106
12/23/2025,0.96,0.9799,0.91,0.91,372732
12/24/2025,0.92,1.05,0.9156,1.02,770953
12/26/2025,1.01,1.04,1,1.02,610815
12/29/2025,1,1.01,0.9201,0.9233,485480
12/30/2025,0.9354,0.9876,0.9233,0.9246,752664
12/31/2025,0.92,0.9599,0.91,0.91,527690
01/02/2026,0.938,1.02,0.9339,0.99,827689
01/05/2026,1.08,1.1,1.03,1.08,1108944
01/06/2026,1.09,1.1,0.9601,1.02,876099
01/07/2026,1.02,1.06,0.98,1.05,481900
01/08/2026,1.04,1.06,0.9802,0.9802,612731
01/09/2026,0.9929,1.03,0.975,0.9882,466645
01/12/2026,0.9797,1.01,0.97,0.985,298460
01/13/2026,0.9919,0.9999,0.9433,0.9445,429092
01/14/2026,0.9588,0.9658,0.911,0.933,613153
01/15/2026,0.95,0.954,0.9,0.9491,321037
01/16/2026,0.9442,1.015,0.9442,0.96,435967
01/20/2026,0.93,0.9859,0.9233,0.9799,601202
01/21/2026,0.9862,1.0191,0.9414,0.9738,379958
01/22/2026,0.9835,1.02,0.9428,0.96,419615
01/23/2026,0.96,0.9899,0.9123,0.9123,395421
01/26/2026,0.927,0.9299,0.8751,0.9228,585837
01/27/2026,0.9228,0.95,0.8535,0.94,912470
01/28/2026,0.9354,0.9469,0.8475,0.8628,979326
01/29/2026,0.85,0.8812,0.805,0.85,917462
01/30/2026,0.84,0.8699,0.8238,0.8391,352124
02/02/2026,0.84,0.9097,0.8202,0.8759,562241
02/03/2026,0.8941,0.8997,0.83,0.8687,436480
02/04/2026,0.8719,0.8719,0.81,0.81,362241
02/05/2026,0.81,0.849999,0.7633,0.7731,459275
02/06/2026,0.7922,0.82415,0.7601,0.8031,377691
02/09/2026,0.823,0.823,0.7787,0.8101,322008
02/10/2026,0.8112,0.85,0.7912,0.817,280870
02/11/2026,0.8379,0.849,0.7719,0.8024,342375
02/12/2026,0.81,0.83,0.788,0.8132,180728
02/13/2026,0.8089,0.83,0.7958,0.8203,171334
02/17/2026,0.8233,0.83,0.771,0.805,261953
02/18/2026,0.8151,0.8151,0.7711,0.782,438208
02/19/2026,0.78,0.78,0.7408,0.7596,425960
02/20/2026,0.7548,0.76,0.731,0.7319,385879
02/23/2026,0.7395,0.7395,0.691,0.691,479925.53
02/24/2026,0.7063,0.7117,0.641,0.6548,576627.5
02/25/2026,0.6637,0.7926,0.654,0.7506,969786.6
02/26/2026,0.76,0.7883,0.73,0.7842,259714.52
02/27/2026,0.776,0.7866,0.7501,0.775,357244.2
03/02/2026,0.74,0.757,0.7205,0.7505,254571.9
03/03/2026,0.77,0.7745,0.7061,0.7485,239152.31
03/04/2026,0.75,0.8116,0.7379,0.8047,229774.78
03/05/2026,0.7886,0.843,0.77,0.84,493090.38
03/06/2026,0.83,0.8544,0.7566,0.801,768312.25
03/09/2026,0.813,0.8291,0.78,0.8113,772575
03/10/2026,0.75,0.7604,0.675,0.675,1128641
03/11/2026,0.7,0.7199,0.68415,0.7148,640327.44
03/12/2026,0.73,0.73,0.66,0.6881,472727.62
03/13/2026,0.7258,0.7258,0.6901,0.6967,326169.53
03/16/2026,0.626,0.7398,0.626,0.7398,347932.56
03/17/2026,0.779,0.779,0.7101,0.7212,241590.44
03/18/2026,0.72,0.739,0.697,0.7249,386970.44
03/19/2026,0.711,0.733,0.6869,0.7212,220062.31
03/20/2026,0.7172,0.7387,0.6964,0.7094,432246
03/23/2026,0.7277,0.74,0.6901,0.71,205676.77
03/24/2026,0.7103,0.725,0.6901,0.697,236603.61
03/25/2026,0.69,0.72,0.69,0.6963,228377.55
03/26/2026,0.6878,0.73,0.6712,0.681,216422.66
03/27/2026,0.6773,0.6984,0.6612,0.6968,197668.58
