12/01/2022,136.4,136.98,133.98,134.96,794895
12/02/2022,133.1,137.7,132.96,137.3,776606
12/05/2022,135.36,135.91,133.8,134.59,924766
12/06/2022,134.95,135.84,130.575,132.04,885362
12/07/2022,131.3,131.96,128.8,129.44,1670622
12/08/2022,130.24,130.85,129.335,130.36,1099111
12/09/2022,130.45,131.71,130.045,130.41,718847
12/12/2022,130.57,132.38,130.0401,132.32,1038318
12/13/2022,136.93,137.72,133.13,134.07,1171205
12/14/2022,133.67,135.0801,131.5,132.77,880843
12/15/2022,130.43,130.43,128.13,128.77,1084506
12/16/2022,127.24,127.78,125.25,126.17,1658582
12/19/2022,126.04,126.95,124.8,125.63,682027
12/20/2022,125.21,126.2108,123.55,124.76,1106768
12/21/2022,125.73,127.8,125.73,127.15,909518
12/22/2022,125.29,125.88,123.222,125.86,722749
12/23/2022,125.25,126.79,124.92,126.72,458223
12/27/2022,126.49,127.8114,126.03,126.42,701918
12/28/2022,127.01,127.54,124.25,124.27,640589
12/29/2022,125.37,126.85,125.02,126.4,648846
12/30/2022,125.22,126.01,124.17,125.74,648835
01/03/2023,126.79,127.425,125.09,126.84,1001095
01/04/2023,128.85,130.22,127.91,129.97,763043
01/05/2023,126.54,126.54,122.525,123.11,1610674
01/06/2023,124.86,128.87,123.6,128.5,1231736
01/09/2023,128.68,131.06,127.075,128.87,1299616
01/10/2023,127,129.85,126.874,129.78,981553
01/11/2023,131.99,132.505,129.68,132.09,1417524
01/12/2023,132.49,132.61,130.53,131.62,1044537
01/13/2023,130.39,132.78,130.36,132.4,871214
01/17/2023,132.36,132.64,129.55,130.62,1689720
01/18/2023,131.53,132,127.71,127.78,1973340
01/19/2023,125.78,126.53,123.32,123.6,2904385
01/20/2023,133.37,133.37,125.75,131,4117580
01/23/2023,130.1,132.3,128.79,130.3,1788239
01/24/2023,130.24,132.045,127.7,130.97,1259508
01/25/2023,129.08,129.33,127.77,128.15,1578498
01/26/2023,125.75,128.48,125.465,127.7,2149869
01/27/2023,127.31,128.65,127.02,127.35,1564091
01/30/2023,127.04,129.57,126.95,127.65,1333296
01/31/2023,128.35,130.47,127.65,130.34,2276246
02/01/2023,130.42,133.3,129.68,132.01,1661332
02/02/2023,132.04,134.9378,130.25,134.43,1327129
02/03/2023,132.72,133.39,129.85,130.73,1007197
02/06/2023,129.27,129.78,128.5,129.44,987451
02/07/2023,128.96,131.64,128.63,131.27,1380430
02/08/2023,129.92,132.06,129.6,130.38,1050199
02/09/2023,132.26,132.83,127.86,128.86,961414
02/10/2023,127.98,128.355,125.74,126.23,1104789
02/13/2023,126.95,128.86,126.04,128.74,992186
02/14/2023,128.69,130.955,128.65,129.78,1147125
02/15/2023,129.03,131.16,128.26,131.04,910986
02/16/2023,128.29,131.1,127.955,129.15,1075687
02/17/2023,128.81,130.12,128.4,129.91,1255476
02/21/2023,130.25,130.25,126.09,126.2,1495487
02/22/2023,126.62,128.82,126.61,128.67,1252099
02/23/2023,129.47,130.1,126.27,128.17,1137835
02/24/2023,125.75,129.81,125.295,129.71,1263335
02/27/2023,131.39,132.71,131.09,131.61,1226702
02/28/2023,131.19,133.51,131.19,132.06,1535285
03/01/2023,131.26,134.7,131.02,133.23,2650969
03/02/2023,132.15,135.51,131.9601,134.84,1641697
03/03/2023,136.11,137.51,134.59,137.46,1288078
03/06/2023,137.4,137.7399,133.6,133.64,1451554
03/07/2023,133.25,133.8,129.91,130.91,1609982
03/08/2023,130.79,131.73,130.1,131.21,944585
03/09/2023,131.28,132.22,126.93,127.4,1246764
03/10/2023,127.03,127.44,124.2,126,2400981
03/13/2023,124.44,126.72,123.66,124.71,1316256
03/14/2023,127.35,129.27,126.02,129.16,1952691
03/15/2023,127.87,128.22,123.24,125.43,1633279
03/16/2023,124.6,127.19,123.55,126.55,1356265
03/17/2023,125.68,125.84,122.26,122.49,2761427
03/20/2023,123.53,125.57,123.53,125.31,1045467
03/21/2023,127.16,127.78,126.02,126.6,791870
03/22/2023,126.22,127.045,123.59,123.61,948259
03/23/2023,123.78,125.63,122.345,123.51,940299
03/24/2023,122.77,125.48,120.9,125.44,1245931
03/27/2023,127.11,127.3,125.265,126,1142923
03/28/2023,126.11,126.71,125.04,126.22,1073837
03/29/2023,128.16,128.87,127.685,128.24,856688
03/30/2023,129.34,131,128.805,129.83,987282
03/31/2023,130.55,133.76,130.05,133.58,1497789
04/03/2023,138.12,140.22,137.26,140.04,3701024
04/04/2023,139.97,140.175,137.97,138.32,1966008
04/05/2023,137.26,139.32,137.195,138.95,1819675
04/06/2023,137.14,138.44,136.975,138.07,1461683
04/10/2023,137.7,139.25,137.16,138.34,935242
04/11/2023,139.19,141.26,138.68,139.3,1192632
04/12/2023,140.66,141.36,137.78,138.01,1306252
04/13/2023,138.96,139.46,137.79,139.29,1764332
04/14/2023,139.04,140.08,137.501,138.42,1024710
04/17/2023,138.95,141.01,138.37,140.93,978420
04/18/2023,141.67,142.46,140.71,141.61,1197160
04/19/2023,141.64,142.38,139.89,140.55,1544755
04/20/2023,139.46,141.57,139.09,141.45,2075254
04/21/2023,144.86,145.14,141.19,141.98,2746981
04/24/2023,144.99,145.51,141.9,142.96,1767725
04/25/2023,142.16,142.865,139.76,140.43,1475831
04/26/2023,139.39,140.45,136.89,137.64,1948517
04/27/2023,138.76,138.98,136.5,138.93,1695956
04/28/2023,139.06,141.37,139.06,140.26,1518169
05/01/2023,140.15,141.57,139.59,139.76,948116
05/02/2023,139.06,139.95,137.165,139.6,1264549
05/03/2023,140.34,141.38,138.19,138.34,1031865
05/04/2023,138.3,138.3,134.665,135.5,1029246
05/05/2023,136.63,138.43,136.58,138.03,987477
05/08/2023,138.19,139.26,137.45,138.68,1258626
05/09/2023,137.4,137.75,136.37,137.14,1303829
05/10/2023,139.1,139.65,135.426,136.86,1019775
05/11/2023,135.96,137.39,134.94,137.24,945997
05/12/2023,138.18,138.72,136.29,138.1,871397
05/15/2023,138.76,140.7839,138.305,140.63,1423269
05/16/2023,139.52,140.18,138.8209,139.33,1247685
05/17/2023,140.01,142.82,139.59,142.41,1212183
05/18/2023,142.52,143.22,141.24,142.57,1202754
05/19/2023,143.38,143.38,141.474,142.4,760707
05/22/2023,142.07,143.2,140.61,140.68,1017952
05/23/2023,139.47,140.06,136.82,136.88,1077691
05/24/2023,135.14,135.85,132.46,133.41,2468373
05/25/2023,133.73,133.96,131.76,133.04,2000234
05/26/2023,133.79,134.46,132.97,133.73,1070173
05/30/2023,133.92,134.76,131.955,134.35,1102734
05/31/2023,134.25,134.25,130.65,131.29,2365726
06/01/2023,131.83,135.14,131.83,134.98,1489945
06/02/2023,137.3,139.81,136.6,139.58,1294271
06/05/2023,138.47,139.5,137.88,137.92,1252821
06/06/2023,138.33,140.1775,138,139.22,958801
06/07/2023,138.44,142.41,138.245,141.85,1224566
06/08/2023,141.8,142.26,139.745,141.17,1417758
06/09/2023,140.52,141.355,138.77,139.67,1174011
06/12/2023,140.01,140.92,139.6,139.99,1591862
06/13/2023,140.05,141.94,140.05,141.32,2216782
06/14/2023,143.39,143.39,140.14,140.7,1932373
06/15/2023,140.62,141.63,139.57,141.27,1580703
06/16/2023,141.93,143.47,140.58,143.08,2675517
06/20/2023,141.46,142.49,141.1,142.04,1386246
06/21/2023,141.73,143.47,141.4,142.34,1532327
06/22/2023,142.83,143.325,140.56,140.77,1613063
06/23/2023,139.16,140.41,138.19,138.89,3212815
06/26/2023,139.22,141.57,138.66,141.08,1198639
06/27/2023,141.25,144.98,141.22,144.43,1119918
06/28/2023,144.29,144.84,142.665,143.3,1609432
06/29/2023,143.2,145.87,143.035,145.37,1194001
06/30/2023,146.3,149.01,146.04,148.3,1352139
07/03/2023,147.46,149.66,146.92,149.07,780594
07/05/2023,147.9,149.225,145.75,146.18,1832329
07/06/2023,144.63,145.32,142.87,145.23,1491506
07/07/2023,145.11,148.04,145.11,146.77,1546298
07/10/2023,146.48,148.86,146.04,147.9,891704
07/11/2023,149.08,150.7,148.575,150.59,1448825
07/12/2023,152.18,152.5,150.37,151.67,1381663
07/13/2023,151.79,151.81,150.42,151.51,1350237
07/14/2023,151.24,151.24,148.92,149.74,1189252
07/17/2023,149.2,151.84,148.88,151.2,1391585
07/18/2023,150.94,152.89,150.53,151.37,1258967
07/19/2023,151.56,152.21,149.38,150.26,1518995
07/20/2023,150.18,150.445,148.64,149.72,2254273
07/21/2023,146.38,152.6,145.09,149.35,2935866
07/24/2023,150.47,151.185,145.1,145.87,2230175
07/25/2023,147.76,148.52,146.3,147.01,2631019
07/26/2023,145.16,146.73,144.53,146.18,2449841
07/27/2023,146.94,147.2,144.22,144.8,1616265
07/28/2023,146.43,146.98,144.67,145.41,1573214
07/31/2023,145.75,145.75,142.83,143.9,2012595
08/01/2023,143.33,146.39,142.98,145.55,2945981
08/02/2023,143,143.8,141.541,141.77,2133336
08/03/2023,140.84,141.82,139.92,140.28,1413910
08/04/2023,141.6,142.77,140.52,140.57,1358252
08/07/2023,141.89,143.89,141.01,143.26,1562416
08/08/2023,140.73,144.49,140.32,143.33,1675060
08/09/2023,142.88,142.88,139.045,139.44,1719826
08/10/2023,139.77,140.65,138.75,139.45,1367082
08/11/2023,138.96,139.26,136.28,136.64,1291098
08/14/2023,136.49,140.05,136.455,139.63,1727692
08/15/2023,138.33,139.77,138.21,138.87,1263654
08/16/2023,138.96,139.8,137.5,137.64,939534
08/17/2023,138.39,139.42,137.625,138.07,1106068
08/18/2023,137.17,140.05,137.17,139.53,1594146
08/21/2023,139.45,139.87,137.49,138.6,992608
08/22/2023,139.39,139.685,137.96,138.36,890982
08/23/2023,138.83,138.8987,137.68,137.85,1331792
08/24/2023,137.75,139.7,137.21,137.25,1157488
08/25/2023,137.72,139.6,136.63,138.37,1501943
08/28/2023,138.96,140.665,138.78,138.83,1243493
08/29/2023,138.83,141.07,138.44,140.96,1123817
08/30/2023,141.02,142.14,140.72,142.04,1199861
08/31/2023,142.33,142.84,141.3,141.76,1202407
09/01/2023,142.66,143.39,141.23,142.01,1101463
09/05/2023,141.49,141.985,136.42,136.47,1772742
09/06/2023,136.94,137.985,136.19,137.05,2163515
09/07/2023,136.65,137.23,135.01,136.18,1175976
09/08/2023,135.91,136.83,135.53,135.7,1271824
09/11/2023,136.94,137.18,135.7635,136.35,854297
09/12/2023,134.39,135.24,133.525,133.84,1448546
09/13/2023,133.56,134.14,132.43,133,1166741
09/14/2023,134.53,134.73,133.07,134.39,1036380
09/15/2023,133.56,135.72,133.52,133.8,2213862
09/18/2023,133.54,133.825,132.29,132.49,978920
09/19/2023,132.27,132.6,130.34,132.21,1454490
09/20/2023,133.53,133.71,130.57,130.8,807704
09/21/2023,130.05,130.05,128,128.29,1448566
09/22/2023,128.54,131.33,128.3,130.13,1660490
09/25/2023,129.36,132.26,129.36,132.05,1174587
09/26/2023,131.31,131.86,128.53,128.61,1200005
09/27/2023,129.41,129.95,126.94,128.03,1313313
09/28/2023,128.3,131.2,127.74,130.56,935952
09/29/2023,131.8,131.87,129.55,129.8,1117888
10/02/2023,129.42,130.115,128.42,129.37,1177742
10/03/2023,127.87,130.31,127.7,128.65,1305609
10/04/2023,131.27,133.49,129.84,133.22,2719846
10/05/2023,132.64,133.81,130.1,131.33,1932250
10/06/2023,130.78,133.9689,130.2501,133.13,1556215
10/09/2023,131.73,131.88,128.54,128.76,1886092
10/10/2023,129.74,131.855,129.485,130.28,2128233
10/11/2023,132.5,133.16,130.8,132.52,1233107
10/12/2023,133.2,133.2399,128.74,130.06,825991
10/13/2023,129.85,130.45,127.89,128.46,1355130
10/16/2023,129.95,131.13,129.23,130.35,1143505
10/17/2023,128.96,132.45,128.8,131.45,1812812
10/18/2023,129.73,130.22,127.63,127.78,2319740
10/19/2023,126,129.26,123.89,124.34,4053133
10/20/2023,124.77,126.46,124.38,124.72,2234247
10/23/2023,124,125.0999,123.38,123.69,1482122
10/24/2023,125.04,125.77,121.87,122.85,1573526
10/25/2023,122.45,122.57,120.44,121.48,1133397
10/26/2023,122.16,123.55,121.75,122.01,1440046
10/27/2023,121.8,122.655,120.325,120.72,838945
10/30/2023,122.27,123.07,120.47,121.82,1161645
10/31/2023,121.97,123.3299,121.755,122.77,1970324
11/01/2023,123.09,123.74,121.62,122.97,1094237
11/02/2023,123.42,125.2,123.24,124.92,1622192
11/03/2023,126.34,129.47,126.34,128.31,1098464
11/06/2023,128.02,129.18,126.95,127.75,977866
11/07/2023,126.96,128.58,126.51,127.81,1521883
11/08/2023,127.75,129.77,127.47,129.55,1340278
11/09/2023,129.5,129.98,127.23,127.37,1170600
11/10/2023,127.87,129.04,127.14,128.81,1283633
11/13/2023,128.27,130.31,128.27,129.28,1574810
11/14/2023,131.69,134.4256,131,133.51,2368040
11/15/2023,133.7,135.74,133.09,133.62,2094172
11/16/2023,133.68,135.34,133.59,135.16,1274029
11/17/2023,135.75,136.03,135.155,135.87,961746
11/20/2023,135.43,136.2401,134.65,135.56,923774
11/21/2023,135.91,137.07,135.36,136.58,982738
11/22/2023,137.39,137.89,135.94,136.64,734302
11/24/2023,136.83,137.17,135.835,136.45,355933
11/27/2023,135.64,137.67,135.25,137.29,1161044
11/28/2023,137.48,138.67,136.47,138.08,1619733
11/29/2023,139.55,140.485,139.015,139.55,1252930
11/30/2023,139.78,142.08,139.11,141.99,2751117
12/01/2023,141.73,143.86,141.45,143.63,1553530
12/04/2023,143.02,144.76,142.765,143.15,2813405
12/05/2023,142.31,142.765,141.29,142.65,1902500
12/06/2023,143.86,144.65,142.39,142.7,1991965
12/07/2023,144.12,145.4,143.48,144.98,1533447
12/08/2023,144.98,145.855,143.7559,143.98,1136587
12/11/2023,144.83,146.8695,144.49,145.84,2053308
12/12/2023,146.04,146.9,145.32,145.37,1998759
12/13/2023,145.33,147.57,145.22,147.47,2579714
12/14/2023,149.6,151.16,148.97,149.15,2463453
12/15/2023,148.84,150.15,148.25,148.68,2920934
12/18/2023,148.62,149.435,147.53,148.75,2411062
12/19/2023,149.43,150.28,148.41,149.51,1926686
12/20/2023,149.43,149.51,146.21,146.32,1478634
12/21/2023,147.63,148.25,146.5,147.75,1399224
12/22/2023,148.1,149.44,147.85,148.75,1309375
12/26/2023,148.84,150.3,148.66,149.69,870619
12/27/2023,149.31,150.58,149.28,150.16,1327693
12/28/2023,150.66,150.82,150.12,150.38,817109
12/29/2023,149.97,150.69,149.3,149.55,944173
01/02/2024,147.73,148.68,146.84,147.28,1842861
01/03/2024,146.65,146.98,144.27,145.62,1739501
01/04/2024,144.84,146.19,144.37,144.91,1702490
01/05/2024,144.23,146.28,144.02,145.94,1081088
01/08/2024,146.13,147.47,145.56,147.39,1013384
01/09/2024,146.27,146.57,145.31,146.23,955425
01/10/2024,146.03,147.51,146.03,147.29,929354
01/11/2024,147.76,147.76,145.71,146.39,1453310
01/12/2024,147.05,147.7,144.635,145.55,1104702
01/16/2024,144.77,145.015,143.03,143.76,2058975
01/17/2024,142.5,144.41,142.15,143.08,3835256
01/18/2024,143.68,145.27,143.42,144.95,4309990
01/19/2024,145.86,145.86,140.71,141.39,5496030
01/22/2024,141.71,143.14,141.71,142.14,2315838
01/23/2024,142.93,143,140.49,142.44,1740567
01/24/2024,143,143.76,140.92,141.03,2555375
01/25/2024,141.83,143.125,140.995,142.79,1823058
01/26/2024,143.79,143.93,142.15,143.04,1633081
01/29/2024,142.86,143.429,141.49,142.86,1897837
01/30/2024,142.45,143.88,142.08,143.07,1389575
01/31/2024,143.39,143.395,140.4611,141.04,2334121
02/01/2024,140.61,141.8,139.17,141.5,1429659
02/02/2024,140.16,140.74,138.65,140.09,1580574
02/05/2024,138.24,138.84,137.49,137.57,2700856
02/06/2024,137.98,139.9,137.98,139.89,1559775
02/07/2024,140.57,141.03,139.05,139.37,1384155
02/08/2024,139.55,139.77,136.55,138.63,1390071
02/09/2024,138.49,139.61,137.44,139.58,1205668
02/12/2024,139.79,141.31,139.25,140.9,1557076
02/13/2024,138.5,139.24,137.43,138.74,1677925
02/14/2024,139.6,140.945,138.75,140.1,1319526
02/15/2024,140.35,142.51,140.255,142.42,1816289
02/16/2024,142.23,142.56,141.51,141.91,2060000
02/20/2024,141.69,142.0666,140.72,141.16,2568670
02/21/2024,141.44,142.67,140.77,142.65,1119426
02/22/2024,143.27,143.91,142.01,143.38,1305706
02/23/2024,143.98,144.73,143.605,144.37,892858
02/26/2024,142,143.11,139.885,142.34,2432858
02/27/2024,142.72,144.985,140.4505,140.91,2176000
02/28/2024,140.47,142.11,139.44,140.48,1298818
02/29/2024,140.84,142.08,140.43,141.6,1951311
03/01/2024,140.94,141.95,139.36,139.52,1972034
03/04/2024,138.89,140,138.52,139.22,1836828
03/05/2024,138.77,140.035,138.365,138.79,1368863
03/06/2024,139.74,141.13,139.11,140.12,1671518
03/07/2024,138.82,141.46,138.82,140.9,2068729
03/08/2024,141.38,142.29,140.565,140.73,1361008
03/11/2024,140.96,142.62,140.06,142.5,1765703
03/12/2024,142.74,143.1,141,141.31,1422506
03/13/2024,141.79,143.005,141.585,141.88,1893444
03/14/2024,140.96,141.63,138.48,138.96,2201408
03/15/2024,137.5,139.98,137.5,137.86,4394255
03/18/2024,137.91,140,137.29,139.07,2002022
03/19/2024,139.5,141.7,139.3603,141.6,2608882
03/20/2024,142.06,142.43,141.01,142.26,2189989
03/21/2024,142.53,143.93,142.3,143.61,1515854
03/22/2024,143.88,143.97,142.21,142.56,1289279
03/25/2024,142.16,142.79,140.72,141.15,1005708
03/26/2024,141.23,142.455,141.12,141.82,1059513
03/27/2024,143,144.6,142.21,144.54,1169480
03/28/2024,145,145.39,144.41,144.9,1532965
04/01/2024,145.12,145.605,142.77,143.38,1093641
04/02/2024,143.09,143.41,140.5,141.66,1051178
04/03/2024,141.7,142.94,141.105,141.73,1180107
04/04/2024,142.62,143.98,139.43,139.77,1236539
04/05/2024,139.5,139.67,138.23,139.04,1061851
04/08/2024,139.77,140.49,138.98,139.91,1347395
04/09/2024,140.74,142.3,139.41,142.2,1223001
04/10/2024,139.73,139.73,137.64,137.73,1561521
04/11/2024,138.52,139.01,137,137.6,2091003
04/12/2024,136.5,136.66,133.59,134.43,2097364
04/15/2024,135.9,136.84,134.205,135.02,1260387
04/16/2024,134.21,135.02,133.48,133.51,1797982
04/17/2024,134.9,135.49,134.17,134.96,1634771
04/18/2024,136.03,136.39,134.16,135.11,2295607
04/19/2024,133.01,134.65,129.55,130.9,4435172
04/22/2024,130.35,131.25,129.225,131.16,2423077
04/23/2024,130.42,131.65,129.43,130.43,2560763
04/24/2024,129.94,130.94,129.91,130.52,1710889
04/25/2024,129.88,129.92,128.255,129.23,1745361
04/26/2024,129.69,130.96,129,130.16,1340523
04/29/2024,130.7,131.47,130.33,130.74,837267
04/30/2024,129.78,130.88,128.7801,129,2045936
05/01/2024,129.53,132.855,129.33,130.95,1966999
05/02/2024,131.78,133.02,130.61,132.25,2440859
05/03/2024,133.84,134.45,132.25,132.92,1286775
05/06/2024,133.74,134.17,132.38,133.04,1135813
05/07/2024,133.75,135,133.4,134.21,1110795
05/08/2024,133.25,133.705,132.77,133.43,1334034
05/09/2024,133.36,134.73,132.785,134.35,1216107
05/10/2024,135.6,136.21,135.22,135.33,1052874
05/13/2024,135.8,136.21,135.3507,135.74,750128
05/14/2024,136.07,136.89,135.14,135.38,1031951
05/15/2024,136.02,136.8,134.75,135.04,895033
05/16/2024,135,135.78,134.7,134.78,1083204
05/17/2024,135.32,135.87,133.76,134.44,1262371
05/20/2024,134.19,135.23,133.5,133.77,1119347
05/21/2024,133.78,134.125,133.18,133.73,940343
05/22/2024,132.98,134.75,132.98,134.7,1721682
05/23/2024,134.66,135.43,130.88,131.02,1259793
05/24/2024,131.49,132.4,130.91,131.42,872004
05/28/2024,131.31,131.64,129.26,129.6,1502519
05/29/2024,128.33,128.8,127.1,127.15,897925
05/30/2024,127.38,129.18,127.13,129.12,1254906
05/31/2024,129.1,131.99,128.5,131.41,3506011
06/03/2024,131.4,132.161,129.8899,131.66,1517814
06/04/2024,131.07,132.92,130.96,131.68,1576381
06/05/2024,131.7,133.38,130.76,133.21,1243659
06/06/2024,132.91,133.42,130.47,130.62,1535338
06/07/2024,129.43,129.515,128.015,128.41,1533303
06/10/2024,128.07,128.71,127.26,128.46,1000041
06/11/2024,128.26,130.11,127.425,129.57,1523646
06/12/2024,131.73,132.21,129.8,130.41,1249389
06/13/2024,129.91,130.145,128.53,129.79,892353
06/14/2024,128.33,128.73,126.1,127.32,1030797
06/17/2024,127.06,128.39,126.08,128.27,1079867
06/18/2024,128.18,128.92,127.13,127.86,1029523
06/20/2024,127.14,130.09,127.14,128.46,1281701
06/21/2024,128.4,128.92,126.57,128.59,1850751
06/24/2024,128.77,130.35,128.065,128.15,1652538
06/25/2024,127.39,127.52,124.48,125.22,2069628
06/26/2024,124.37,125.9,123.8353,125.25,1862054
06/27/2024,125.29,125.625,124.735,124.9,1034534
06/28/2024,124.88,126.1389,124.66,125.89,2360687
07/01/2024,126.01,126.4299,123.66,123.98,1180759
07/02/2024,124.02,125.39,123.67,124.88,1266319
07/03/2024,124.97,125.68,124.48,124.87,696606
07/05/2024,124.52,125.44,124.04,125.23,1096021
07/08/2024,125.88,127.11,125.88,127,1118886
07/09/2024,126.67,126.97,125.17,125.26,997546
07/10/2024,126.5,126.875,125.3,126.64,1085049
07/11/2024,128.12,129.84,127.6,129.71,1202771
07/12/2024,130.56,131.35,129.84,130.62,901182
07/15/2024,130.28,132.63,130.28,130.88,1519881
07/16/2024,131.33,133.84,131.15,133.23,1690037
07/17/2024,133.01,135,132.66,133.76,1915375
07/18/2024,132.74,135.57,131.58,131.71,2385402
07/19/2024,127.5,129.07,126.405,128.04,4125126
07/22/2024,128.7,129.43,126.9005,128.37,1560320
07/23/2024,128.43,128.63,126.541,126.72,1600353
07/24/2024,127,127.285,125.13,125.24,1571071
07/25/2024,125.33,127.56,124.87,125.94,1461296
07/26/2024,126.23,127.61,125.56,127.55,1556173
07/29/2024,127.35,128.58,126.92,127.74,1249752
07/30/2024,126.84,128.05,126.84,127.21,1473352
07/31/2024,127.85,128.6214,126.35,126.98,2157341
08/01/2024,127.62,128.3764,125.17,125.88,1414816
08/02/2024,125.58,125.58,122.5,123.46,1222970
08/05/2024,122.19,122.19,118.96,119.39,1597193
08/06/2024,119.22,121.44,118.96,119.06,2323556
08/07/2024,119.83,121.76,118.07,118.32,1930810
08/08/2024,118.94,120.295,118.915,119.23,1533783
08/09/2024,119.02,120.045,118.41,119.24,980114
08/12/2024,118.54,119.26,118.14,118.4,1297062
08/13/2024,118.72,119.78,118.09,119.26,1470183
08/14/2024,119.21,120.37,118.57,119.87,1240940
08/15/2024,121.29,122.73,120.8,122.07,1240687
08/16/2024,121.86,122.515,120.85,122.4,1903580
08/19/2024,122.77,123.405,122.31,123.25,1025612
08/20/2024,122.9,123.6,122.465,123,678719
08/21/2024,123.66,125.06,123.22,124.95,1025934
08/22/2024,125.36,125.59,124.46,125.16,1006011
08/23/2024,125.47,127.12,125.3401,126.53,1074852
08/26/2024,126.94,127.95,126.55,126.9,574159
08/27/2024,126.87,127.67,126.6,127.11,906698
08/28/2024,127.14,128.36,126.96,127.64,954930
08/29/2024,128.39,129.4794,127.15,128.84,933521
08/30/2024,129.6,130.445,128.41,129.73,1951673
09/03/2024,128.74,129.85,127.55,127.95,1398554
09/04/2024,128.06,128.6275,126.48,126.67,914691
09/05/2024,126.92,127.025,124.9,125.28,1013505
09/06/2024,125,126.28,124.38,124.78,1179724
09/09/2024,125.58,126.9499,125.21,126.14,1411531
09/10/2024,126.35,126.42,124.69,125.89,895939
09/11/2024,125.94,126.19,122.76,125.5,1181183
09/12/2024,125.22,125.86,123.17,125.49,1057946
09/13/2024,125.83,127.54,125.47,126.98,968009
09/16/2024,128,128.5,126.75,127.34,1369153
09/17/2024,127.81,128.59,127.04,127.46,1041737
09/18/2024,127.78,129.03,126.91,127.46,1258779
09/19/2024,129.31,130.37,128.65,129.23,1229306
09/20/2024,127.35,127.5,125.39,126.5,3320169
09/23/2024,127.13,127.99,126.64,127.3,1077056
09/24/2024,127.9,128.88,127.32,128.32,1162596
09/25/2024,128.6,128.63,127.1,127.84,1197288
09/26/2024,129.32,134.865,128.98,134.55,2263100
09/27/2024,135.18,137.24,134.045,134.56,1914513
09/30/2024,134.7,134.92,131.44,132.46,1802175
10/01/2024,133.17,133.44,129.89,130.74,1205542
10/02/2024,130.32,131.1,129.27,130.68,810342
10/03/2024,129.81,130.03,127.43,127.84,906386
10/04/2024,129.05,129.49,127.38,128.57,743436
10/07/2024,127.37,128.8518,127.12,128.75,764336
10/08/2024,128.06,128.95,127.02,127.23,1786324
10/09/2024,127.84,128.85,127.18,127.44,1564467
10/10/2024,127.12,127.53,126.37,127.35,1820435
10/11/2024,127.36,128.475,127.25,128.25,817298
10/14/2024,128.21,129.09,127.905,128.5,1597456
10/15/2024,129.52,131.66,128.87,129.87,1728034
10/16/2024,130.01,131.84,129.9606,130.36,1962967
10/17/2024,131.56,132.16,128.75,131.36,2092212
10/18/2024,131.925,132.18,130.02,130.93,2049791
10/21/2024,130.53,131.24,128.61,128.82,1258773
10/22/2024,128.41,128.88,126.055,126.6,1132917
10/23/2024,126.3,126.8,125.32,126.28,1256205
10/24/2024,126.76,127.69,125.645,127.24,1263506
10/25/2024,127.32,127.83,126.36,126.45,820416
10/28/2024,128.025,128.39,127.1,127.38,1213681
10/29/2024,125.96,127.25,125.865,126.52,1324654
10/30/2024,126.5,127.55,125.5,125.67,1906615
10/31/2024,125.76,126.32,124.47,124.51,2047138
11/01/2024,124.66,125.17,123.96,124.41,1822773
11/04/2024,125.27,126.38,124.34,124.86,852046
11/05/2024,123.77,124.84,123.12,124.65,1280968
11/06/2024,128.17,128.56,124.355,125.76,3043331
11/07/2024,126.29,126.95,125.85,125.98,1011232
11/08/2024,125.02,126.5,125.02,125.52,1159000
11/11/2024,126.12,126.96,125.53,125.96,808260
11/12/2024,124.77,125.105,121.69,121.75,1396337
11/13/2024,122.19,123.56,121.57,123.42,1374118
11/14/2024,123.37,123.95,122.495,123.52,1257916
11/15/2024,123.16,123.91,122.24,122.53,1580091
11/18/2024,122.95,124.93,122.86,123.42,1754959
11/19/2024,122.39,122.505,120.945,121.08,1166642
11/20/2024,121,121.55,120.29,121.29,1165357
11/21/2024,121.3,122.78,120.76,122.68,913475
11/22/2024,122.37,123.23,122.03,122.65,1004791
11/25/2024,123.68,126.09,123.16,125.79,1747513
11/26/2024,124.46,125.205,122.925,123.35,912739
11/27/2024,123.3,125.0472,123.23,123.45,955633
11/29/2024,123.24,124.54,123.19,124.37,714061
12/02/2024,124.5,126.19,123.85,125.97,1664679
12/03/2024,126.05,126.75,124.75,126.18,2443284
12/04/2024,125.29,127.04,125.29,126.83,2875538
12/05/2024,127.01,127.01,124.31,125.5,3332973
12/06/2024,126.35,126.75,124.52,125.57,2450965
12/09/2024,126.25,130.05,125.85,126.86,3026868
12/10/2024,126.53,126.53,123.5124,125.42,1828390
12/11/2024,125.53,125.705,122.45,122.59,1751309
12/12/2024,122.45,124.1,122.45,124.02,1653149
12/13/2024,123.26,124.29,122.18,124.17,2201608
12/16/2024,123.35,124.87,122.63,122.64,1925009
12/17/2024,122.035,123.07,121.25,122.06,2008753
12/18/2024,122.02,124.81,121.22,121.25,3556990
12/19/2024,120.97,122,119.4105,119.52,3384579
12/20/2024,119.255,121.78,118.58,120.21,3136690
12/23/2024,119.95,120.42,118.83,120.15,1326911
12/24/2024,120.08,121.23,119.56,120.98,535605
12/26/2024,120.07,121.369,120.05,121.23,989739
12/27/2024,120.42,121.93,119.935,120.38,971298
12/30/2024,119.55,119.77,118.5,119.09,1285735
12/31/2024,119.59,120.27,118.745,119.45,1029905
01/02/2025,119.09,119.79,115.34,115.42,2652800
01/03/2025,115.2,115.625,113.49,114.27,2119769
01/06/2025,114.62,116.7,114.52,115.07,2591037
01/07/2025,114.86,118.36,114.86,115.86,1958934
01/08/2025,115.16,115.88,113.915,115.69,1339627
01/10/2025,114.2,114.7,113.14,113.18,1426408
01/13/2025,113.52,115.17,113,114.8,1997811
01/14/2025,115.25,116.61,115.25,116.53,1857696
01/15/2025,118.86,119.03,116.85,117.57,1953860
01/16/2025,117.37,119.61,117.095,119.6,1413279
01/17/2025,120.09,121.16,119.72,120.24,2564172
01/21/2025,121.3,123.66,121.06,123.37,2232068
01/22/2025,123.09,123.88,122.49,122.87,1994855
01/23/2025,122.84,124.07,122.755,123.48,1395172
01/24/2025,124.12,124.74,122.54,122.78,1691506
01/27/2025,123.39,124.66,122.66,124.29,3048445
01/28/2025,124.08,124.54,122.92,123.01,1462241
01/29/2025,122,123.52,121.97,122.38,1898024
01/30/2025,122.17,123.3,121.51,122.75,2499176
01/31/2025,115,117.58,114.79,115.38,4166083
02/03/2025,113.85,114,110.2,111.99,3089264
02/04/2025,113.35,113.67,111.06,111.27,2368480
02/05/2025,111.73,112.8,111,112.57,2123992
02/06/2025,113.29,116.38,112.03,115.9,3227029
02/07/2025,116.15,116.15,114.33,114.84,1503466
02/10/2025,115.4,115.57,114.07,114.12,1545011
02/11/2025,114.28,115.23,113.7762,114.91,1039413
02/12/2025,113.185,115.5,112.75,114.8,1526775
02/13/2025,115.56,118.105,115.213,117.92,1856640
02/14/2025,118.35,119.12,117.68,117.75,1632291
02/18/2025,117.71,119.29,117.295,119.26,1501073
02/19/2025,116.5,118,115.45,116.79,1643564
02/20/2025,116.66,118.11,116.06,117.89,1568139
02/21/2025,117.55,117.8283,114.29,114.8,2320446
02/24/2025,115.04,115.195,113.46,113.53,1265584
02/25/2025,114.32,115.39,113.5,114.39,2221778
02/26/2025,114.73,115.79,113.61,115.04,1351940
02/27/2025,114.7,115.63,113.58,113.68,1563878
02/28/2025,114.11,115.8,112.12,113.22,3320902
03/03/2025,114.95,115.52,111.485,111.72,2276954
03/04/2025,111.5,111.75,109.15,109.29,2873506
03/05/2025,109.88,114.75,109.805,114.09,2968877
03/06/2025,114.12,116.455,113.32,115.37,2552955
03/07/2025,114.34,116.46,113.68,115.48,2127589
03/10/2025,114,117.88,114,114.69,2409628
03/11/2025,115.29,115.66,111.19,113.43,2204996
03/12/2025,113.29,114.06,110.93,110.98,1780430
03/13/2025,111.04,112.75,110.3101,111.36,1583450
03/14/2025,112.78,113.85,111.62,113.47,2115621
03/17/2025,113.43,114.46,112.63,113.84,2075910
03/18/2025,113.37,113.93,112.74,113.57,1199890
03/19/2025,113.81,114.26,112.21,113.1,1688425
03/20/2025,112.04,112.97,111.16,111.26,1685556
03/21/2025,110.25,111.49,109.33,110.73,3041554
03/24/2025,112.26,114.21,111.85,112.98,2078788
03/25/2025,113.14,113.26,111.35,111.74,1686739
03/26/2025,112.04,113.09,110.62,111.93,2020777
03/27/2025,111.54,111.54,105.64,108.36,4537269
03/28/2025,109.25,109.57,106.98,107.44,3315571
03/31/2025,106.8,109.47,105.99,109.35,2929891
04/01/2025,109.35,109.6,107.78,108.95,2094829
04/02/2025,108.27,110.11,107.88,110.11,3836423
04/03/2025,107.35,107.53,103.89,103.99,2230149
04/04/2025,102.39,103.11,97.485,99.15,3812558
04/07/2025,96.49,101.515,95.01,96.93,3160374
04/08/2025,98.91,99.97,90.24,91.66,4942897
04/09/2025,91,103.63,90.97,103.11,4941044
04/10/2025,101.135,101.135,95.61,98.53,2994353
04/11/2025,97.86,101.42,96.41,100.73,1906436
04/14/2025,102,102.4,100.58,101.48,1460950
04/15/2025,100.82,102.12,99.27,99.61,1731959
04/16/2025,99.55,100.55,97.53,98.42,2530943
04/17/2025,99.35,100.9988,98.68,100.05,2240531
04/21/2025,99.57,100.1,98.34,99.4,1902494
04/22/2025,100.82,102.335,100.4,101.78,977998
04/23/2025,104.39,105.96,101.345,101.83,1588293
04/24/2025,102.22,104.63,101.16,104.13,1010596
04/25/2025,103.1,104,101.76,102.57,1938632
04/28/2025,102.63,103.845,101.95,102.96,1489543
04/29/2025,102.995,104.45,102.995,103.81,1880193
04/30/2025,110.1,110.1,106.87,108.86,4628159
05/01/2025,109.46,110.41,108.345,108.77,2870373
05/02/2025,110.49,111.44,109.225,110.49,2083879
05/05/2025,109.9,111.39,109.65,110.22,1753906
05/06/2025,109.2,110.37,107.96,108.56,1270763
05/07/2025,108.41,108.705,105.895,106.76,1600959
05/08/2025,107.46,109.92,107.15,108.61,1626515
05/09/2025,108.93,110,108.8,109.44,1654767
05/12/2025,113.99,117.46,113.57,114.21,1989124
05/13/2025,114.25,114.67,113.3,113.34,1857953
05/14/2025,113.07,113.47,111.1495,111.67,1739894
05/15/2025,111.06,113.13,110.79,113.06,1398264
05/16/2025,112.92,114.15,112.09,114.08,3365265
05/19/2025,112.59,114.57,112.325,114.26,1363245
05/20/2025,113.77,114.83,113.255,113.79,1372432
05/21/2025,112.2,112.98,110.98,111.24,1245708
05/22/2025,110.79,111.76,110.2501,111.21,2283452
05/23/2025,109.33,110.33,109.0001,110.08,948161
05/27/2025,111.79,112.45,110.76,112.26,1255051
05/28/2025,112.08,112.29,110.46,110.55,881578
05/29/2025,110.99,111.65,110,111.31,1491940
05/30/2025,110.58,110.885,109.48,110.8,3637842
06/02/2025,110.35,110.38,109.13,110.35,1529849
06/03/2025,109.92,111.51,108.81,111.37,1659558
06/04/2025,111.43,112.52,111.22,111.93,1213366
06/05/2025,112.41,112.51,110.99,111.26,1410130
06/06/2025,112.39,113.79,112.02,112.6,1063310
06/09/2025,113.26,114.32,112.985,113.46,1283399
06/10/2025,113.97,115.565,113.41,115.04,1933805
06/11/2025,115.24,115.24,112.94,113.01,1942364
06/12/2025,112.04,112.52,111.51,112.03,1291916
06/13/2025,110.16,110.77,106.08,106.3,2505217
06/16/2025,108.09,109.08,107.21,109.04,1996241
06/17/2025,108.2,108.99,107.24,107.54,1607050
06/18/2025,107.27,108.5,106.96,108.24,1789117
06/20/2025,109.15,109.22,107.66,108.67,4312238
06/23/2025,108.23,112.61,108.23,112.33,2697545
06/24/2025,114.3,115.22,113.09,113.88,2025742
06/25/2025,114,114.91,112.54,113.26,1308348
06/26/2025,113.67,114.71,113.395,113.78,1539242
06/27/2025,114.03,115.38,113.41,114.15,2248731
06/30/2025,113.76,114.2,113.04,113.75,1405147
07/01/2025,113.25,117.82,112.72,116.41,2055101
07/02/2025,117.4,118.91,116.42,118.59,1588971
07/03/2025,118.59,118.94,117.71,118.28,796208
07/07/2025,117.81,117.89,115.29,115.46,1511956
07/08/2025,116.1,118.27,115.66,117.41,1563819
07/09/2025,118.16,118.74,117.105,118.19,1294919
07/10/2025,119.03,120.91,118.31,119.07,1365308
07/11/2025,117.795,117.795,116.51,117.3,817760
07/14/2025,116.15,116.595,115.02,116.36,1219347
07/15/2025,117.16,117.16,114.28,114.29,1157602
07/16/2025,114.03,115.77,113.61,115.57,1514301
07/17/2025,115.41,116.485,115.05,116.02,1824775
07/18/2025,116.21,116.405,113.415,114.53,5187061
07/21/2025,115.49,115.8175,114.29,114.52,1067299
07/22/2025,113.8,115.45,113.65,115.4,1720684
07/23/2025,116.57,117.04,115.02,116.61,1523402
07/24/2025,115.83,117.29,114.78,115.02,1711038
07/25/2025,115.495,116.15,114.755,115.95,1280174
07/28/2025,115.24,115.7,113.87,113.97,1469340
07/29/2025,114.14,115.08,112.09,112.23,2255854
07/30/2025,110,110.07,105.3017,106.25,6555223
07/31/2025,105.36,107.5,105.18,105.5,3895828
08/01/2025,104.14,104.71,102.78,104.44,1989158
08/04/2025,104.9,105.72,104.55,105,2560095
08/05/2025,105.95,106.73,105.09,106.02,1398009
08/06/2025,106.71,106.71,104.56,105.68,2502201
08/07/2025,107.58,108.07,105.79,106.12,1865748
08/08/2025,106.14,107.44,105.58,106.95,1207003
08/11/2025,106.76,107.195,105.85,106.52,1838148
08/12/2025,107.02,109.56,106.495,108.75,1455391
08/13/2025,108.93,112.63,108.76,112.62,2048696
08/14/2025,110.87,112.07,110.3954,111.95,1270064
08/15/2025,112.49,112.55,111.16,111.8,1400251
08/18/2025,111.79,111.956,110.86,110.97,1335272
08/19/2025,111.52,113.84,111.25,112.86,1355265
08/20/2025,112.48,113.345,111.66,112.06,1091509
08/21/2025,111.19,112.065,110.77,111.57,1214260
08/22/2025,112.16,115.5,111.76,114.27,1594264
08/25/2025,113.66,113.88,111.99,112.14,1161618
08/26/2025,112,113.05,111.79,112.57,1566049
08/27/2025,112.28,113.37,111.83,112.13,796330
08/28/2025,112.55,112.585,110.48,111.22,1278201
08/29/2025,111.42,112.08,110.85,111.23,906817
09/02/2025,109.24,109.91,108.825,109.59,1788064
09/03/2025,109.32,109.97,108.605,109.19,1161011
09/04/2025,109.77,109.86,108.46,109.64,1642859
09/05/2025,110.43,112.01,109.11,109.98,2222294
09/08/2025,109.65,111.6,108.345,111.53,3264999
09/09/2025,110.7,110.765,108.76,109.38,2041002
09/10/2025,108.44,109.5579,108.19,108.78,1423562
09/11/2025,109.08,112.15,108.995,111.83,1505903
09/12/2025,111.13,111.8,110.36,110.72,1552318
09/15/2025,111.33,111.465,109.105,109.45,1281541
09/16/2025,109.42,109.91,107.915,108.36,1220471
09/17/2025,108.88,111.575,107.62,108.1,1492830
09/18/2025,108.46,109.26,107.99,109.02,1715188
09/19/2025,110.38,110.48,108.31,109.42,3617802
09/22/2025,108.66,109.83,107.8501,109.49,2348926
09/23/2025,109.36,109.72,105.71,106.24,2150560
09/24/2025,105.33,106.63,105.04,105.48,1686816
09/25/2025,105.26,105.44,103.635,103.92,1955057
09/26/2025,104.58,105.02,103.29,103.65,1859013
09/29/2025,104.44,105.2799,102.8994,104.02,2244886
09/30/2025,104.15,105.2,103.52,105.11,1723289
10/01/2025,104.96,105.51,103.71,104.09,1588855
10/02/2025,103.98,105.32,103.74,104.52,1333554
10/03/2025,104.35,105.38,104.005,104.43,1160214
10/06/2025,105.13,105.13,103.51,103.52,1466612
10/07/2025,103.99,104.27,101.51,101.7,1412518
10/08/2025,101.89,102.05,101,101.59,1519027
10/09/2025,101.85,102.04,99.485,99.6,1650616
10/10/2025,100.47,101.785,98.44,98.48,1772697
10/13/2025,99.24,99.89,98.16,98.86,1420800
10/14/2025,98,101.34,97.99,100.5,1362480
10/15/2025,100.68,101.36,98.855,99.56,1517784
10/16/2025,101.51,101.8357,100.04,101.01,1859007
10/17/2025,101.02,101.76,100.235,101.57,1195968
10/20/2025,102,102.535,101.53,102.17,1033614
10/21/2025,102.17,104.84,101.895,104.38,1790722
10/22/2025,103.63,104.29,102,102.16,1443741
10/23/2025,102.87,103.62,101.879,103.5,1265297
10/24/2025,104.43,104.6,103.08,103.5,1228379
10/27/2025,104,105.78,103.55,105.45,2209997
10/28/2025,106.09,106.71,104.95,105.31,2967111
10/29/2025,103.95,104,99.04,99.13,3446514
10/30/2025,98,100.79,97.18,97.45,2748962
10/31/2025,96.94,98.17,96.5,97.75,3132474
11/03/2025,96.67,97.57,94.32,94.96,2955398
11/04/2025,94.33,95.015,93.74,94.92,2327396
11/05/2025,94.52,96.55,94.063,96.25,2602499
11/06/2025,96.25,97,95.105,95.17,3974535
11/07/2025,95.11,96.51,94.89,96.25,1847162
11/10/2025,95.73,96.22,94.34,95.93,1699910
11/11/2025,95.99,96.25,95.25,95.91,1057127
11/12/2025,96.25,98.03,96,97.49,1565105
11/13/2025,97.62,98.77,97.62,98.11,1809138
11/14/2025,97.45,97.77,96.58,97.03,1601073
11/17/2025,96.715,97.105,95.2599,95.36,2168246
11/18/2025,95,95.28,93.73,94.82,3052663
11/19/2025,94.94,95.56,93.385,94.34,2349948
11/20/2025,95.52,96,94.46,95.2,2297796
11/21/2025,96.42,100.8,95.905,98.7,3808088
11/24/2025,98.41,98.71,96.83,97.16,3013387
11/25/2025,98.12,100.1666,97.7082,99.6,2859074
11/26/2025,99.37,100.75,99.25,99.89,1400124
11/28/2025,100.18,100.815,99.955,100.04,689823
12/01/2025,99.3,101.75,98.551,99.86,2271312
12/02/2025,100.31,100.6,99,100.25,1771042
12/03/2025,100.5,101.7,100.04,101.34,1720259
12/04/2025,101.48,102,100.33,100.67,1989528
12/05/2025,101.31,102.08,100.76,101.03,2474694
12/08/2025,100.84,101.38,100.29,100.37,2161755
12/09/2025,100.36,100.99,99.2501,99.43,1586115
12/10/2025,99.49,100.79,98.16,100.44,2121959
12/11/2025,100.78,103.28,100.46,102.76,1567547
12/12/2025,103.35,103.91,102.825,103.54,1708481
12/15/2025,104.01,104.25,102.57,103.72,1655530
12/16/2025,104.5,104.59,103.33,103.7,1879478
12/17/2025,103.11,104.71,103,103.72,2127667
12/18/2025,104.39,105.48,102.83,102.91,2263328
12/19/2025,102.58,103.37,102.39,102.68,3625875
12/22/2025,102.52,103.8,102.17,103.37,1475442
12/23/2025,103.81,104,102.32,102.67,1589216
12/24/2025,103.12,103.945,102.85,103.55,622417
12/26/2025,103.48,104.43,103.4,104.32,936843
12/29/2025,104.43,104.78,103.71,104.25,2271808
12/30/2025,103.93,104.35,103.62,103.68,1212533
12/31/2025,103.5,103.61,102.28,102.46,1174913
01/02/2026,103.03,104.695,102.01,104.35,1810271
01/05/2026,103.01,106.34,103.01,105.21,1699641
01/06/2026,104.64,106.149,104.61,105.64,1701640
01/07/2026,105.53,105.58,103.295,103.9,1677054
01/08/2026,102.97,107.01,102.355,105.3,1541619
01/09/2026,105.41,107.6,105.4,107.41,1679243
01/12/2026,108.01,108.9,107.29,108.05,2096497
01/13/2026,108.59,109,106.55,107.59,1875583
01/14/2026,107.72,109.59,107.51,108.57,1549082
01/15/2026,109.09,110.5,108.4311,110.07,1549122
01/16/2026,109.14,110.6,108.97,110.22,5937905
01/20/2026,109.37,109.91,108.39,109.01,2079376
01/21/2026,110.5,112.86,109.49,112.54,1923783
01/22/2026,113.16,114.52,112.54,113.91,2062693
01/23/2026,113.28,113.404,111.26,112.29,1965280
01/26/2026,112.48,113.15,111.85,112.65,1821347
01/27/2026,112.56,113.03,110.28,110.28,2869397
01/28/2026,114.89,116.18,112.07,113.96,5740752
01/29/2026,114.86,116.6,114.1165,116.51,2797532
01/30/2026,116.76,117.5,114.83,115.63,2736911
02/02/2026,116.16,117.8,115.94,116.46,2493239
02/03/2026,116.12,121.54,116.12,119.52,2865601
02/04/2026,121,126.04,120.63,125.95,3384370
02/05/2026,126,126.47,123.43,124.42,2469001
02/06/2026,125.11,126.74,125.0123,126.51,1719986
02/09/2026,126.24,128.05,125.03,127.59,1475041
02/10/2026,127.86,129.4,127.05,129.14,1586634
02/11/2026,128.98,131.21,128.865,131.03,1618196
02/12/2026,132,133.43,130.46,131.56,2556870
02/13/2026,131.18,132.625,130.73,131.34,1713733
02/17/2026,131.5,132.055,128.56,129.18,2089370
02/18/2026,129.32,129.715,126.1401,128.25,3311925
02/19/2026,126.95,127.9,123.761,124.25,2544517
02/20/2026,123.66,126.88,122.955,126.53,1838608
02/23/2026,125.76,127.16,124.41,125.35,1201528.1
02/24/2026,125.71,126.855,125.16,125.55,1545105.8
02/25/2026,126.1,126.82,122.4601,123.12,1668783.9
02/26/2026,123.63,124.265,121.53,123.48,1363833.6
02/27/2026,121.75,123.48,120.37,123.27,1892477
03/02/2026,119,120.87,116.73,119.2,2310846.2
03/03/2026,115.5,119.14,114.67,118.18,2245066
03/04/2026,119.04,120.32,116.94,117.7,2530482.5
03/05/2026,116.36,117,110.89,111.87,2305377.2
03/06/2026,109.89,109.94,106.14,106.7,3161428.5
03/09/2026,104.96,108.43,102.29,108.25,3425965.2
03/10/2026,108.96,109.785,105.77,105.85,3399284.8
03/11/2026,105.38,105.83,103.33,104.08,1807875.2
03/12/2026,102.92,103.535,100.64,100.73,2033495.8
03/13/2026,101.96,103.0097,100.675,101.89,2245491.5
03/16/2026,103.28,104.63,102.63,103.45,1896755
03/17/2026,103.77,104.76,103.19,103.9,1685546.2
03/18/2026,103.15,103.43,100.62,100.78,1851723.8
03/19/2026,98.59,99.555,96.06,98.38,2823902.2
03/20/2026,98.56,99.265,96.07,97.22,3638116
03/23/2026,100.02,103.14,99.68,102.08,3773412
03/24/2026,100.42,104.24,99.648,103.42,2540173.5
03/25/2026,105.05,107.175,104.15,106.69,2497701
03/26/2026,104.85,107.51,104.7075,105.31,1756174
03/27/2026,104.61,105.18,103.31,103.82,1531644.6
