01/02/2019,13.49,14.44,13.27,14.26,741961
01/03/2019,14.4,15.18,14.16,14.48,1493560
01/04/2019,14.79,15.69,14.6,15.58,908749
01/07/2019,15.66,16.2,15.49,16.17,1566241
01/08/2019,16.51,16.9237,16.3,16.69,1217583
01/09/2019,16.91,16.92,16.47,16.8,1278465
01/10/2019,16.8,17.22,16.65,16.99,3245068
01/11/2019,16.82,16.92,16.57,16.79,1064558
01/14/2019,16.32,17.17,16.27,16.92,2237451
01/15/2019,17.05,17.73,17.04,17.64,874560
01/16/2019,17.46,17.68,17.32,17.32,666367
01/17/2019,17.17,17.4,17.04,17.25,557291
01/18/2019,17.45,17.47,17.05,17.31,990654
01/22/2019,17.23,17.27,16.565,16.66,950531
01/23/2019,16.81,16.86,16.04,16.24,791086
01/24/2019,16.25,16.36,15.88,16.3,885345
01/25/2019,16.46,16.74,16.31,16.57,514687
01/28/2019,16.35,16.57,16.1,16.4,756670
01/29/2019,16.59,16.81,16.4301,16.54,1462383
01/30/2019,16.63,16.65,16.01,16.43,2636368
01/31/2019,16.55,16.58,15.9625,16.02,2542485
02/01/2019,16.06,16.26,15.84,16.03,1195894
02/04/2019,15.88,16.4,15.77,16.3,1077623
02/05/2019,16.26,16.45,15.83,16,1353122
02/06/2019,15.92,16.25,15.89,16.03,519573
02/07/2019,15.88,16.03,15.23,15.45,1894744
02/08/2019,15.4,15.54,14.88,15.32,620922
02/11/2019,15.26,15.63,15.17,15.59,618467
02/12/2019,15.9,16.04,15.62,15.84,683359
02/13/2019,15.9,16.4,15.83,16.36,935258
02/14/2019,16.27,16.8,16.27,16.63,728228
02/15/2019,16.77,17.135,16.7057,16.87,725384
02/19/2019,16.76,17.3353,16.643,17.13,638357
02/20/2019,17.07,17.33,17.05,17.21,863478
02/21/2019,17.17,17.33,16.71,16.85,1037972
02/22/2019,17.07,17.17,16.745,16.82,969006
02/25/2019,16.82,16.985,16.7,16.83,1255463
02/26/2019,16.88,16.9,16.45,16.47,1193098
02/27/2019,16.54,16.87,16.21,16.6,1468377
02/28/2019,16.57,16.585,14.93,15.74,3262177
03/01/2019,15.39,15.55,14.92,15.22,2071966
03/04/2019,15.3,15.43,14.82,15.13,1085954
03/05/2019,15.13,15.27,14.95,15.06,763380
03/06/2019,14.96,15.045,14.62,14.67,838150
03/07/2019,14.68,14.86,14.52,14.75,1099815
03/08/2019,14.2,14.38,13.78,14.08,1572063
03/11/2019,14.05,14.75,14.05,14.47,1279354
03/12/2019,14.54,14.77,14.44,14.67,967703
03/13/2019,14.75,14.775,14.38,14.48,762395
03/14/2019,14.45,14.74,14.45,14.63,1074977
03/15/2019,14.51,14.65,14.43,14.49,1175864
03/18/2019,14.53,14.81,14.47,14.78,1136073
03/19/2019,14.94,15.13,14.615,14.69,703775
03/20/2019,14.68,14.93,14.38,14.88,930210
03/21/2019,14.84,15.32,14.84,14.98,708421
03/22/2019,14.8,14.83,14.48,14.49,503848
03/25/2019,14.47,14.66,14.185,14.63,492756
03/26/2019,14.79,15.14,14.61,14.74,448166
03/27/2019,14.73,14.87,14.56,14.7,779438
03/28/2019,14.62,14.7999,14.43,14.64,596936
03/29/2019,14.85,14.9,14.57,14.74,694278
04/01/2019,14.9,15.24,14.79,14.79,1174563
04/02/2019,14.84,15.13,14.6,14.68,1220453
04/03/2019,14.78,14.94,14.63,14.71,487781
04/04/2019,14.73,15.04,14.66,15.04,790784
04/05/2019,15.08,15.58,15.08,15.55,694254
04/08/2019,15.58,15.77,15.3931,15.49,471709
04/09/2019,15.4,15.54,15.19,15.44,639047
04/10/2019,15.52,15.59,15.2725,15.46,811374
04/11/2019,15.44,15.62,15.33,15.57,456201
04/12/2019,15.9,15.9,15.56,15.58,432440
04/15/2019,15.52,15.52,15.1,15.14,557936
04/16/2019,14.75,14.78,13.96,14.05,2437189
04/17/2019,14.1,14.4666,13.97,14.17,1167830
04/18/2019,14.17,14.17,13.84,13.9,778417
04/22/2019,14.07,14.55,13.97,14.51,741169
04/23/2019,14.58,14.66,14.23,14.27,959055
04/24/2019,14.3,14.3,13.935,13.98,972970
04/25/2019,13.95,13.95,13.59,13.61,1026593
04/26/2019,13.55,13.58,13.15,13.26,1392059
04/29/2019,13.29,13.29,13.12,13.26,653191
04/30/2019,13.37,13.38,12.91,13.06,886118
05/01/2019,13.12,13.21,12.86,12.87,1215953
05/02/2019,12.75,12.8,12.19,12.4,1895845
05/03/2019,12.56,12.81,12.48,12.78,1569079
05/06/2019,12.73,12.8899,12.66,12.73,778149
05/07/2019,12.56,12.67,12.34,12.57,3445431
05/08/2019,12.46,13.37,12.12,12.5,1814878
05/09/2019,11.97,12.01,11.69,11.94,1372950
05/10/2019,11.94,12.85,11.92,12.78,2222838
05/13/2019,12.7,12.91,12.37,12.69,1031723
05/14/2019,12.79,13.91,12.79,13.76,2338637
05/15/2019,13.55,13.98,13.47,13.8,1329675
05/16/2019,13.88,14.15,13.75,13.79,1192774
05/17/2019,13.68,13.9,13.65,13.73,892055
05/20/2019,13.77,14.28,13.77,14.19,973770
05/21/2019,14.22,14.45,13.99,14.05,1069476
05/22/2019,13.94,13.94,13.67,13.83,815979
05/23/2019,13.5,13.5,13.16,13.35,688353
05/24/2019,13.54,13.56,13.05,13.26,957532
05/28/2019,13.28,13.46,13.18,13.2,778449
05/29/2019,13,13.08,12.46,12.92,1145412
05/30/2019,12.92,13.01,12.49,12.53,975903
05/31/2019,12.24,12.61,12.19,12.61,1090244
06/03/2019,12.69,12.93,12.445,12.56,1348731
06/04/2019,12.69,13.31,12.57,13.12,813982
06/05/2019,13.11,13.15,12.59,12.67,560140
06/06/2019,12.67,12.82,12.385,12.48,985955
06/07/2019,12.52,12.77,12.39,12.66,532471
06/10/2019,12.73,12.8,12.335,12.41,571068
06/11/2019,12.52,12.685,12.355,12.37,691477
06/12/2019,12.24,12.245,11.805,11.98,865606
06/13/2019,12.22,12.25,11.96,12.06,694528
06/14/2019,12.09,12.12,11.555,11.79,1418791
06/17/2019,11.7,11.9,11.31,11.79,1034167
06/18/2019,11.9,12.2,11.89,11.95,406784
06/19/2019,11.92,12.01,11.74,11.94,454722
06/20/2019,12.21,12.26,11.6,11.82,825746
06/21/2019,11.82,11.955,11.67,11.83,972393
06/24/2019,11.85,11.89,11.39,11.44,582075
06/25/2019,11.4,11.4,11.06,11.06,513894
06/26/2019,11.2,11.61,11.2,11.48,1040544
06/27/2019,11.55,11.65,11.42,11.62,555216
06/28/2019,11.7,12.01,11.7,12,805338
07/01/2019,12.21,12.33,11.94,11.95,653520
07/02/2019,11.95,11.99,11.58,11.77,561328
07/03/2019,11.8,12.03,11.75,12.01,317542
07/05/2019,11.97,12.3,11.96,12.29,662099
07/08/2019,12.26,12.37,11.97,12.09,700132
07/09/2019,12.07,12.28,12.03,12.11,1053777
07/10/2019,12.26,12.59,12.26,12.52,471999
07/11/2019,12.55,12.69,12.4,12.45,544367
07/12/2019,12.41,12.64,12.41,12.55,653880
07/15/2019,12.58,12.7,12.31,12.51,616582
07/16/2019,12.48,12.61,12.34,12.49,563794
07/17/2019,12.5,12.5478,12.08,12.09,838257
07/18/2019,12.04,12.065,11.54,11.77,607638
07/19/2019,11.75,11.95,11.67,11.79,619211
07/22/2019,11.82,11.97,11.6,11.92,662040
07/23/2019,12.06,12.46,11.54,11.86,901345
07/24/2019,11.9,12.3,11.9,12.19,980798
07/25/2019,12.29,12.32,11.945,12.26,988723
07/26/2019,12.31,12.31,11.92,11.94,607867
07/29/2019,11.94,12.01,11.55,11.57,528725
07/30/2019,11.51,12.02,11.45,12,804995
07/31/2019,12.07,13.33,12.035,12.67,2262801
08/01/2019,12.45,12.57,12.01,12.1,1239851
08/02/2019,12.14,12.24,11.63,11.78,528350
08/05/2019,11.53,11.66,10.92,11,1064305
08/06/2019,11.09,11.3,10.8,11.13,932721
08/07/2019,10.96,10.975,10.445,10.63,1234535
08/08/2019,10.72,10.95,10.6261,10.85,830450
08/09/2019,10.72,10.7465,9.77,9.8,1562475
08/12/2019,9.71,10.02,9.48,10.005,1133610
08/13/2019,9.89,10.14,9.7,9.96,1161067
08/14/2019,9.31,9.48,9.1521,9.32,1637904
08/15/2019,9.17,9.28,8.73,8.86,1386580
08/16/2019,8.9,9.3,8.78,9.28,783069
08/19/2019,9.43,9.83,9.38,9.76,705495
08/20/2019,9.7,10.01,9.69,9.94,912894
08/21/2019,10.13,10.21,9.95,9.97,939356
08/22/2019,9.97,10.03,9.475,9.5,684955
08/23/2019,9.21,9.3381,8.59,8.6,1843321
08/26/2019,8.68,8.7108,8.32,8.47,1102340
08/27/2019,8.55,8.55,8.1,8.21,2095888
08/28/2019,8.3,8.91,8.21,8.66,1215871
08/29/2019,8.74,8.96,8.63,8.79,1105864
08/30/2019,8.84,8.91,8.67,8.84,1946904
09/03/2019,8.68,8.68,8.26,8.46,1567828
09/04/2019,8.59,8.7,8.39,8.53,1546918
09/05/2019,8.63,8.97,8.56,8.73,698869
09/06/2019,8.64,8.89,8.52,8.82,466706
09/09/2019,8.89,9.37,8.88,9.35,949562
09/10/2019,9.38,9.88,9.38,9.61,1429387
09/11/2019,9.72,9.79,9.39,9.75,969276
09/12/2019,9.53,9.87,9.46,9.82,1021387
09/13/2019,9.94,10.43,9.9179,10.28,1276046
09/16/2019,16.64,17.1,16.48,16.5,34924440
09/17/2019,16.53,16.65,16.38,16.47,12870173
09/18/2019,16.49,16.61,16.43,16.58,8135825
09/19/2019,16.63,16.8,16.6101,16.69,6563881
09/20/2019,16.76,16.87,16.7,16.81,4458518
09/23/2019,16.78,16.84,16.67,16.71,2550514
09/24/2019,16.71,16.73,16.435,16.47,1942481
09/25/2019,16.45,16.52,16.335,16.51,2096453
09/26/2019,16.49,16.51,16.3299,16.4,898013
09/27/2019,16.32,16.4199,16.3,16.38,2223024
09/30/2019,16.34,16.45,16.31,16.34,3321051
10/01/2019,16.35,16.46,16.29,16.32,2025079
10/02/2019,16.3,16.31,16.05,16.09,1593372
10/03/2019,16.02,16.26,15.95,16.26,2732289
10/04/2019,16.28,16.6,16.26,16.42,3368082
10/07/2019,16.42,16.45,16.23,16.25,2565239
10/08/2019,16.18,16.22,15.93,15.93,1611125
10/09/2019,16.11,16.16,15.84,15.84,1446776
10/10/2019,15.82,16.03,15.82,15.99,1502316
10/11/2019,16.16,16.18,15.96,15.96,1650346
10/14/2019,15.92,16.02,15.83,15.95,1256977
10/15/2019,15.91,16.05,15.87,15.97,1902206
10/16/2019,15.87,16.05,15.87,15.98,1617588
10/17/2019,16.04,16.1,15.95,16.02,2006290
10/18/2019,16,16.32,16,16.29,2003826
10/21/2019,16.36,16.385,16.23,16.33,1971158
10/22/2019,16.35,16.39,16.175,16.21,966133
10/23/2019,16.16,16.21,16.04,16.18,2591621
10/24/2019,16.24,16.24,15.99,15.99,876381
10/25/2019,15.91,16.16,15.91,16,2819662
10/28/2019,16.06,16.2,15.87,15.9,1129211
10/29/2019,15.85,16.07,15.83,15.9,1516517
10/30/2019,15.89,16.04,15.84,15.93,3234800
10/31/2019,15.9,16.125,15.82,16.1,1765922
11/01/2019,16.17,16.37,16.16,16.3,2449205
11/04/2019,16.4,16.51,16.285,16.39,812191
11/05/2019,16.47,16.47,16.19,16.4,970159
11/06/2019,16.36,16.37,16.09,16.14,1043847
11/07/2019,16.3,16.4,15.91,16.02,1962773
11/08/2019,15.95,16.105,15.79,16.07,1788625
11/11/2019,15.98,16.03,15.88,15.9,1783190
11/12/2019,15.93,16.0256,15.61,15.62,4260248
11/13/2019,14.98,15.01,14.59,14.85,1873977
11/14/2019,14.92,14.965,14.685,14.89,1625300
11/15/2019,14.97,15.265,14.97,15.2,1578214
11/18/2019,15.14,15.22,14.945,15,866621
11/19/2019,15,15.14,14.79,15.03,2056868
11/20/2019,15.08,15.125,14.93,15,1019509
11/21/2019,15.04,15.455,15.01,15.42,2786770
11/22/2019,15.48,15.51,15.3,15.46,1068254
11/25/2019,15.4,15.73,15.4,15.66,1747077
11/26/2019,15.62,15.67,15.41,15.45,2064962
11/27/2019,15.51,15.51,15.25,15.4,824949
11/29/2019,15.29,15.46,15.29,15.37,821698
12/02/2019,15.42,15.46,15.2,15.22,2083452
12/03/2019,15.08,15.245,15.01,15.06,5324966
12/04/2019,15.09,15.16,14.96,15.02,37853544
05/14/2025,25.41,25.41,25.26,25.3197,179968
05/15/2025,25.32,25.32,25.2353,25.2353,1319
05/16/2025,25.37,25.4906,25.3,25.4906,1305
05/19/2025,25.47,25.59,25.47,25.5689,10089
05/20/2025,25.44,25.47,25.36,25.3918,504
05/21/2025,25.4,25.48,25.1539,25.1539,8586
05/22/2025,25.28,25.29,25.1896,25.1896,342
05/23/2025,25.1052,25.16,25.0474,25.0474,5501
05/27/2025,25.31,25.5765,25.31,25.5597,4845
05/28/2025,25.58,25.59,25.505,25.505,1350
05/29/2025,25.53,25.64,25.52,25.5755,702
05/30/2025,25.58,25.6085,25.47,25.6085,7984
06/02/2025,25.43,25.5892,25.43,25.5892,4786
06/03/2025,25.55,25.6759,25.55,25.6759,1455
06/04/2025,25.77,25.84,25.77,25.8119,14562
06/05/2025,25.84,25.91,25.76,25.7902,13249
06/06/2025,26.09,26.1059,26.01,26.1059,1336
06/09/2025,26.07,26.1,26.0169,26.0169,9057
06/10/2025,26.08,26.11,26.05,26.1095,2618
06/11/2025,26.126,26.15,25.99,26.0245,6881
06/12/2025,26.1038,26.1038,26.07,26.0761,3009
06/13/2025,25.64,25.83,25.5637,25.5637,7002
06/16/2025,25.9395,25.94,25.86,25.8617,7583
06/17/2025,25.8,25.82,25.695,25.6998,3392
06/18/2025,25.7,25.7,25.4529,25.4529,2772
06/20/2025,25.82,25.82,25.25,25.2513,2819
06/23/2025,25.34,25.51,25.23,25.51,1173
06/24/2025,25.793,25.88,25.793,25.87,2645
06/25/2025,25.94,25.95,25.9,25.93,2539
06/26/2025,26,26.12,26,26.11,7411
06/27/2025,26.19,26.33,26.19,26.33,3852
06/30/2025,26.39,26.5048,26.39,26.5048,5234
07/01/2025,26.439,26.439,26.3582,26.3582,330
07/02/2025,26.26,26.3159,26.26,26.3159,1083
07/07/2025,26.4343,26.4343,26.4343,26.4343,28
07/08/2025,26.42,26.43,26.3829,26.3829,1654
07/09/2025,26.4231,26.4853,26.4231,26.4853,400
07/10/2025,26.3755,26.4402,26.3755,26.395,2122
07/11/2025,26.295,26.3,26.252,26.252,1683
07/14/2025,26.3159,26.37,26.3159,26.3445,967
07/15/2025,26.4,26.4,26.2896,26.2896,412
07/16/2025,26.31,26.3698,26.25,26.3698,22319
07/17/2025,26.4167,26.4818,26.4167,26.4818,1868
07/18/2025,26.48,26.49,26.45,26.49,10934
07/21/2025,26.65,26.65,26.554,26.554,5025
07/22/2025,26.51,26.6124,26.51,26.6124,7269
07/23/2025,26.42,26.6356,26.42,26.62,1616006
07/24/2025,26.71,26.75,26.69,26.72,43511
07/25/2025,26.7,26.85,26.7,26.79,8398
07/28/2025,26.85,26.85,26.77,26.814,17517
07/29/2025,26.856,26.88,26.72,26.72,15289
07/30/2025,26.785,26.879,26.734,26.734,3020
07/31/2025,27.02,27.06,26.61,26.66,12898
08/01/2025,26.16,26.2,26.06,26.06,1208
08/04/2025,26.21,26.46,26.21,26.46,16772
08/05/2025,26.38,26.38,26.12,26.12,9934
08/06/2025,26.22,26.33,26.1,26.326,4166
08/07/2025,26.33,26.34,25.86,25.99,14477
08/08/2025,26.06,26.18,26.06,26.16,50530
08/11/2025,26.08,26.13,25.94,25.96,8965
08/12/2025,25.973,26.16,25.91,26.16,5230
08/13/2025,26.182,26.26,26.15,26.26,13017
08/14/2025,26.1835,26.2901,26.1835,26.28,17758
08/15/2025,26.37,26.446,26.37,26.38,1098
08/18/2025,26.346,26.41,26.31,26.37,16653
08/19/2025,26.36,26.3638,26.28,26.31,6069
08/20/2025,26.14,26.3,26.1356,26.29,2001
08/21/2025,26.19,26.27,26.14,26.26,14691
08/22/2025,26.475,26.5,26.4,26.5,10864
08/25/2025,26.47,26.51,26.42,26.42,6179
08/26/2025,26.46,26.46,26.34,26.454,6008
08/27/2025,26.46,26.52,26.46,26.52,9582
08/28/2025,26.5125,26.61,26.5095,26.61,7395
08/29/2025,26.51,26.54,26.456,26.48,5965
09/02/2025,26.28,26.28,26.15,26.26,15842
09/03/2025,26.52,26.64,26.4633,26.64,19276
09/04/2025,26.47,26.7,26.4168,26.7,11965
09/05/2025,26.74,26.74,26.4038,26.5,8794
09/08/2025,26.59,26.6,26.54,26.55,37388
09/09/2025,26.64,26.67,26.6,26.67,2426
09/10/2025,26.69,26.69,26.48,26.53,6114
09/11/2025,26.58,26.76,26.58,26.7341,3624
09/12/2025,26.695,26.695,26.631,26.6456,4939
09/15/2025,26.76,26.78,26.73,26.78,11096
09/16/2025,26.683,26.75,26.66,26.7168,6022
09/17/2025,26.68,26.76,26.61,26.7116,19570
09/18/2025,26.91,26.91,26.8027,26.83,6332
09/19/2025,26.9,26.94,26.84,26.94,2595
09/22/2025,26.96,27.11,26.91,27.1019,23460
09/23/2025,27.14,27.14,26.8705,26.9135,3762
09/24/2025,26.88,26.88,26.715,26.8206,2342
09/25/2025,26.59,26.69,26.51,26.654,9506
09/26/2025,26.81,26.8185,26.68,26.78,8736
09/29/2025,26.9,27.01,26.77,26.77,21399
09/30/2025,26.73,26.84,26.7101,26.84,2427
10/01/2025,26.7348,26.8912,26.7348,26.8822,6142
10/02/2025,26.895,26.99,26.843,26.99,6387
10/03/2025,26.98,27.1,26.93,26.93,9678
10/06/2025,26.895,27.09,26.895,27.08,2094
10/07/2025,27.009,27.03,26.84,26.84,64453
10/08/2025,26.923,26.99,26.91,26.9205,61681
10/09/2025,26.87,26.89,26.8325,26.861,5779
10/10/2025,26.96,26.96,26.3297,26.3297,4458
10/13/2025,26.605,26.6925,26.53,26.6717,5430
10/14/2025,26.52,26.74,26.52,26.6088,3588
10/15/2025,26.8,26.82,26.5804,26.62,4611
10/16/2025,26.69,26.71,26.32,26.4128,2801
10/17/2025,26.31,26.69,26.31,26.6627,5603
10/20/2025,26.81,27.01,26.8,27,6130
10/21/2025,26.94,27.06,26.94,27.05,5274
10/22/2025,27.14,27.149,26.8401,26.95,8652
10/23/2025,27.03,27.03,26.96,26.97,4071
10/24/2025,27.24,27.34,27.2101,27.27,4280
10/27/2025,27.53,27.61,27.4968,27.61,3971
10/28/2025,27.67,27.748,27.66,27.69,3953
10/29/2025,27.33,27.35,27.15,27.27,18102
10/30/2025,27.37,27.4,27.16,27.16,7610
10/31/2025,27.2,27.2,27.0599,27.11,2506
11/03/2025,27.23,27.23,27.05,27.14,4469
11/04/2025,26.84,27.011,26.84,26.92,16633
11/05/2025,27,27.09,26.93,26.93,15488
11/06/2025,26.7,26.72,26.53,26.64,13473
11/07/2025,26.51,26.56,26.28,26.56,10687
11/10/2025,26.7821,27.02,26.78,26.99,975
11/11/2025,26.92,27.08,26.905,27.0665,5293
11/12/2025,27.1132,27.13,26.99,27.13,5842
11/13/2025,26.99,26.99,26.69,26.7,4390
11/14/2025,26.48,26.833,26.4799,26.67,7920
11/17/2025,26.81,26.81,26.4,26.45,11282
11/18/2025,26.39,26.391,26.17,26.26,11770
11/19/2025,26.32,26.56,26.3058,26.4,12039
11/20/2025,26.8,26.86,26.01,26.02,12757
11/21/2025,26.265,26.62,26.2158,26.4305,13690
11/24/2025,26.755,26.89,26.755,26.89,23144
11/25/2025,26.89,27.14,26.89,27.14,11389
11/26/2025,27.09,27.13,27.09,27.1139,991
11/28/2025,27.16,27.295,27.12,27.17,7046
12/01/2025,27.03,27.1,26.9536,26.9536,2832
12/02/2025,27.086,27.1755,27.0705,27.0705,20875
12/03/2025,27,27.105,26.99,27.01,6560
12/04/2025,27.0774,27.12,27.013,27.12,7517
12/05/2025,27.33,27.3471,27.33,27.3471,397
12/08/2025,27.36,27.36,27.12,27.21,7227
12/09/2025,27.16,27.19,27.15,27.1504,2572
12/10/2025,27.11,27.32,27.0965,27.28,5512
12/11/2025,27.21,27.382,27.1799,27.382,11006
12/12/2025,27.14,27.26,27.14,27.1602,6142
12/15/2025,27.2039,27.2039,27.105,27.17,13910
12/16/2025,27.07,27.1138,27.02,27.1138,2092
12/17/2025,27.1,27.1,26.73,26.73,19041
12/18/2025,27,27.13,26.93,27.04,4135
12/19/2025,27.1944,27.29,27.1944,27.29,2373
12/22/2025,27.41,27.45,27.37,27.45,19137
12/23/2025,27.447,27.575,27.447,27.563,9345
12/24/2025,27.59,27.65,27.585,27.65,15357
12/26/2025,27.78,27.79,27.62,27.62,2933
12/29/2025,27.63,27.63,27.51,27.5798,4670
12/30/2025,27.5768,27.6299,27.56,27.59,3205
12/31/2025,27.59,27.59,27.4,27.4,1275
01/02/2026,27.44,27.44,27.1,27.16,31230
01/05/2026,27.2,27.3,27.19,27.19,7871
01/06/2026,27.25,27.448,27.25,27.448,152903
01/07/2026,27.584,27.679,27.56,27.5853,5703
01/08/2026,27.52,27.5399,27.41,27.49,5101
01/09/2026,27.5,27.5592,27.4635,27.5202,4704
01/12/2026,27.355,27.46,27.355,27.4432,2365
01/13/2026,27.43,27.43,27.1208,27.1219,2546
01/14/2026,26.68,26.88,26.6701,26.88,7034
01/15/2026,27.005,27.005,26.8,26.86,12677
01/16/2026,26.81,26.8899,26.7821,26.7821,2888
01/20/2026,26.33,26.4399,26.17,26.17,10698
01/21/2026,26.345,26.47,26.3,26.4035,3760
01/22/2026,26.53,26.63,26.53,26.5809,21420
01/23/2026,26.658,26.658,26.59,26.5905,4234
01/26/2026,26.7108,26.81,26.7,26.775,7121
01/27/2026,26.84,26.9001,26.84,26.8405,3096
01/28/2026,26.81,26.86,26.7499,26.7901,5023
01/29/2026,26.47,26.6505,26.47,26.6505,2868
01/30/2026,26.62,26.62,26.48,26.503,5513
02/02/2026,26.68,26.76,26.68,26.69,4068
02/03/2026,26.285,26.29,25.98,26.02,3920
02/04/2026,25.9355,26,25.8,25.9256,10758
02/05/2026,25.96,25.96,25.74,25.7496,3819
02/06/2026,25.86,26.0614,25.86,26.0614,2348
02/09/2026,26.01,26.21,26.01,26.0753,7497
02/10/2026,26.11,26.125,25.8961,25.8961,7104
02/11/2026,25.92,25.92,25.74,25.7614,9165
02/12/2026,25.82,25.82,25.3646,25.3646,4756
02/13/2026,25.27,25.43,25.2186,25.2186,6097
02/17/2026,25.205,25.355,25.138,25.28,6246
02/18/2026,25.36,25.54,25.36,25.4878,3919
02/19/2026,25.32,25.32,25.23,25.3047,4572
02/20/2026,25.525,25.5388,25.48,25.5388,6132
02/23/2026,25.55,25.55,25.1477,25.1477,2249.044
02/24/2026,25.17,25.33,25.1699,25.3189,8045.974
02/25/2026,25.5,25.6672,25.5,25.6672,11960.466
02/26/2026,25.46,25.6,25.4399,25.5702,2859.178
02/27/2026,25.47,25.5358,25.4,25.5358,4487.5
03/02/2026,25.21,25.6599,25.21,25.5807,4862.1875
03/03/2026,25.23,25.53,25.105,25.5034,5196.57
03/04/2026,25.66,25.72,25.6151,25.6151,34544.6
03/05/2026,25.63,25.63,25.43,25.6138,28068
03/06/2026,25.425,25.5,25.42,25.43,5641.646
03/09/2026,25.204,25.63,25.09,25.63,181196
03/10/2026,25.53,25.64,25.37,25.47,35728.86
03/11/2026,25.47,25.47,25.23,25.3329,8215.086
03/12/2026,25.19,25.19,24.98,24.98,14152.705
03/13/2026,24.95,24.95,24.8111,24.8111,5368.23
03/16/2026,25.14,25.14,25.07,25.1058,2324
03/17/2026,25.26,25.26,25.1191,25.1191,4774
03/18/2026,24.931,24.931,24.7134,24.7134,1566.248
03/19/2026,24.65,24.71,24.56,24.6289,4193.96
03/20/2026,24.43,24.48,24.305,24.3198,6612.405
03/23/2026,24.69,24.75,24.53,24.5391,24112.441
03/24/2026,24.395,24.395,24.15,24.15,7162.152
03/25/2026,24.25,24.305,24.17,24.25,2367.062
03/26/2026,24.12,24.18,23.8254,23.8254,7053
03/27/2026,23.55,23.55,23.28,23.3024,9242
